const String fileData = ""# Coluna1 Coluna2 Coluna3",
"0.05905 0.04010 -0.13255",
"0.06099 0.03680 -0.13433",
"0.06581 0.04730 -0.13414",
"0.06925 0.05187 -0.13367",
"0.07195 0.04442 -0.13008",
"0.07370 0.04185 -0.12415",
"0.07422 0.04133 -0.11935",
"0.07608 0.03867 -0.11452",
"0.07776 0.03686 -0.11283",
"0.07902 0.03662 -0.11228",
"0.07795 0.03220 -0.11080",
"0.07710 0.02793 -0.10987",
"0.08776 0.02435 -0.10724",
"0.09177 0.02101 -0.10836",
"0.08359 0.02057 -0.11204",
"0.07890 0.02190 -0.11100",
"0.06947 0.01931 -0.11282",
"0.06311 0.01941 -0.11492",
"0.06070 0.01792 -0.11383",
"0.06100 0.01417 -0.11125",
"0.06225 0.01490 -0.11080",
"0.06341 0.01498 -0.10932",
"0.06412 0.01291 -0.10744",
"0.06158 0.01036 -0.10656",
"0.06012 0.01074 -0.10546",
"0.06200 0.01050 -0.10250",
"0.06244 0.00690 -0.09882",
"0.06147 0.00450 -0.09557",
"0.06184 0.00540 -0.09356",
"0.06284 0.00380 -0.09066",
"0.06100 0.00140 -0.08870",
"0.06437 -0.00000 -0.08570",
"0.07036 -0.00071 -0.08075",
"0.06844 -0.00277 -0.07808",
"0.05399 -0.00351 -0.08114",
"0.04230 -0.00230 -0.08275",
"0.04124 -0.00159 -0.08082",
"0.03169 -0.00159 -0.08534",
"0.02395 -0.00276 -0.08642",
"0.02521 -0.00247 -0.08184",
"0.02530 -0.00250 -0.08010",
"0.02446 -0.00522 -0.07634",
"0.02154 -0.00644 -0.07457",
"0.02016 -0.00487 -0.07364",
"0.02123 -0.00645 -0.07041",
"0.02055 -0.00945 -0.06745",
"0.01799 -0.00901 -0.06745",
"0.01785 -0.00770 -0.06600",
"0.01841 -0.01019 -0.06385",
"0.01834 -0.01263 -0.06156",
"0.01790 -0.01215 -0.05780",
"0.01534 -0.01171 -0.05780",
"0.01254 -0.01493 -0.05698",
"0.00350 -0.01604 -0.05789",
"-0.00782 -0.01234 -0.06003",
"-0.00980 -0.01235 -0.05890",
"-0.01244 -0.01621 -0.05875",
"-0.02040 -0.01543 -0.05856",
"-0.02490 -0.01386 -0.05659",
"-0.02252 -0.01358 -0.05334",
"-0.02215 -0.01320 -0.05135",
"-0.02397 -0.01615 -0.04768",
"-0.02364 -0.01750 -0.04187",
"-0.02462 -0.01417 -0.04713",
"-0.02805 -0.01417 -0.05453",
"-0.02990 -0.01755 -0.04820",
"-0.03162 -0.01678 -0.04636",
"-0.03838 -0.01540 -0.04655",
"-0.04241 -0.01440 -0.04543",
"-0.04009 -0.01449 -0.04225",
"-0.03915 -0.01490 -0.03860",
"-0.04015 -0.01438 -0.03712",
"-0.04042 -0.01368 -0.03489",
"-0.03930 -0.01382 -0.03263",
"-0.03894 -0.01382 -0.03059",
"-0.03990 -0.01310 -0.02855",
"-0.04020 -0.01857 -0.02502",
"-0.04341 -0.03425 -0.02176",
"-0.04307 -0.03460 -0.02043",
"-0.03679 -0.02160 -0.02146",
"-0.03230 -0.01630 -0.02310",
"-0.02902 -0.01047 -0.02416",
"-0.02099 -0.00113 -0.02224",
"-0.02716 0.01017 -0.03587",
"-0.04561 0.02051 -0.05749",
"-0.04925 0.02855 -0.06010",
"-0.03993 0.03421 -0.05806",
"-0.04676 0.04049 -0.07145",
"-0.04926 0.04627 -0.07951",
"-0.03940 0.04995 -0.07608",
"-0.03570 0.05330 -0.07740",
"-0.02709 0.06027 -0.07382",
"-0.01595 0.06216 -0.07004",
"-0.02776 0.06895 -0.08528",
"-0.04812 0.07856 -0.10629",
"-0.04340 0.08070 -0.10950",
"-0.04051 0.08747 -0.12069",
"-0.04164 0.09682 -0.12339",
"-0.02988 0.10917 -0.11769",
"-0.01021 0.11548 -0.11233",
"-0.00015 0.10670 -0.10755",
"0.00684 0.10347 -0.10082",
"0.01667 0.10200 -0.09463",
"0.01386 0.10041 -0.09222",
"0.01327 0.11123 -0.09006",
"0.03150 0.13045 -0.08385",
"0.03615 0.12616 -0.07834",
"0.03978 0.12203 -0.07225",
"0.04389 0.11896 -0.06656",
"0.05076 0.11482 -0.05835",
"0.06375 0.11700 -0.04875",
"0.06810 0.11710 -0.04411",
"0.07246 0.11231 -0.03894",
"0.07361 0.10908 -0.03449",
"0.08035 0.10726 -0.03073",
"0.09995 0.10410 -0.02325",
"0.10270 0.10250 -0.01702",
"0.10120 0.10247 -0.01566",
"0.10012 0.09942 -0.01686",
"0.09954 0.09559 -0.01477",
"0.10170 0.09210 -0.00685",
"0.09928 0.08841 -0.00320",
"0.10028 0.08276 -0.00000",
"0.10040 0.08180 0.00405",
"0.09548 0.08249 0.00691",
"0.09000 0.08005 0.00775",
"0.08261 0.07770 0.00766",
"0.07902 0.07572 0.00849",
"0.07164 0.07208 0.00656",
"0.06384 0.07071 0.00185",
"0.05950 0.07065 -0.00135",
"0.04695 0.06420 -0.00158",
"0.03629 0.05841 -0.00828",
"0.01299 0.05479 -0.02459",
"-0.00959 0.05255 -0.03421",
"-0.01205 0.04400 -0.02505",
"-0.03227 0.00983 -0.01200",
"-0.05613 -0.04449 0.00013",
"-0.05585 -0.04513 0.00334",
"-0.03876 0.00976 -0.00885",
"-0.03000 0.05300 -0.03090",
"-0.02563 0.08643 -0.04634",
"-0.02230 0.09000 -0.04079",
"-0.08264 -0.02061 -0.01557",
"-0.14710 -0.12713 0.00210",
"-0.12040 -0.07220 -0.00435",
"-0.09984 -0.02926 -0.00475",
"-0.09345 -0.01781 -0.00148",
"-0.09017 -0.01408 -0.00016",
"-0.08487 -0.01090 0.00202",
"-0.07740 -0.00360 0.00550",
"-0.07028 0.00442 0.00966",
"-0.08941 -0.03031 0.01375",
"-0.10428 -0.06799 0.02055",
"-0.09839 -0.06908 0.02572",
"-0.08965 -0.04650 0.02520",
"-0.07837 -0.02343 0.02640",
"-0.07567 -0.02198 0.02418",
"-0.07554 -0.02613 0.02150",
"-0.07372 -0.02442 0.02054",
"-0.07535 -0.02405 0.01685",
"-0.07600 -0.02365 0.01559",
"-0.07388 -0.02392 0.00860",
"-0.07479 -0.02647 0.00073",
"-0.08105 -0.02603 -0.01347",
"-0.09190 -0.02785 -0.04160",
"-0.11014 -0.05158 -0.06646",
"-0.11277 -0.04533 -0.08915",
"-0.09476 -0.03428 -0.10037",
"-0.06111 -0.03508 -0.10163",
"-0.01900 -0.02805 -0.10705",
"0.02098 -0.03481 -0.11634",
"0.08369 -0.02626 -0.11890",
"0.14688 -0.01587 -0.12064",
"0.22185 0.00450 -0.13287",
"0.34095 0.05825 -0.13735",
"0.46337 0.09940 -0.08867",
"0.59504 0.14838 -0.03580",
"0.72536 0.20873 0.04374",
"0.84814 0.27315 0.15029",
"0.96460 0.33015 0.26295",
"1.06277 0.36936 0.42353",
"1.16586 0.42544 0.56329",
"1.17139 0.44088 0.65075",
"1.05688 0.38630 0.72187",
"0.91890 0.32465 0.79805",
"0.79486 0.28576 0.84024",
"0.65805 0.19562 0.86980",
"0.48991 0.09023 0.90148",
"0.29036 -0.00304 0.92674",
"0.06870 -0.10215 0.92575",
"-0.14159 -0.16545 0.89149",
"-0.28358 -0.19136 0.85455",
"-0.34468 -0.18832 0.75923",
"-0.34807 -0.17735 0.63005",
"-0.32340 -0.17695 0.55275",
"-0.30208 -0.17449 0.47841",
"-0.27969 -0.17514 0.40866",
"-0.25377 -0.17379 0.34432",
"-0.23431 -0.16595 0.28634",
"-0.22320 -0.15375 0.24390",
"-0.20551 -0.13138 0.20618",
"-0.18545 -0.10894 0.15453",
"-0.16997 -0.10045 0.09691",
"-0.15920 -0.09668 0.05719",
"-0.14930 -0.08655 0.04135",
"-0.14269 -0.07851 0.03054",
"-0.13709 -0.06822 0.02418",
"-0.13508 -0.06191 0.01871",
"-0.13503 -0.06089 0.01396",
"-0.13205 -0.06140 0.01135",
"-0.12581 -0.05882 0.00845",
"-0.12526 -0.05919 0.00578",
"-0.12334 -0.05752 0.00503",
"-0.11938 -0.05481 0.00375",
"-0.11775 -0.05535 0.00345",
"-0.11499 -0.05219 0.00341",
"-0.12467 -0.04941 -0.00034",
"-0.12774 -0.04622 -0.00232",
"-0.12213 -0.04425 -0.00077",
"-0.12175 -0.04510 0.00040",
"-0.11947 -0.04522 -0.00020",
"-0.11892 -0.04539 -0.00075",
"-0.11836 -0.04508 0.00008",
"-0.11573 -0.04486 0.00041",
"-0.11365 -0.04490 0.00005",
"-0.11326 -0.04508 0.00134",
"-0.11673 -0.04429 -0.01025",
"-0.11681 -0.04409 -0.01776",
"-0.11378 -0.04428 -0.01411",
"-0.11175 -0.04370 -0.01330",
"-0.11188 -0.04364 -0.01373",
"-0.10983 -0.04406 -0.01270",
"-0.10804 -0.04436 -0.01253",
"-0.10790 -0.04436 -0.01216",
"-0.10530 -0.04460 -0.01160",
"-0.10298 -0.04532 -0.01240",
"-0.10165 -0.04657 -0.01235",
"-0.10103 -0.04715 -0.01183",
"-0.10089 -0.04729 -0.01247",
"-0.10045 -0.04805 -0.01315",
"-0.09601 -0.04845 -0.01327",
"-0.09457 -0.04876 -0.01209",
"-0.09395 -0.04907 -0.01081",
"-0.09365 -0.05002 -0.01225",
"-0.09345 -0.05090 -0.01325",
"-0.09085 -0.05118 -0.01189",
"-0.08997 -0.05219 -0.01136",
"-0.08930 -0.04975 -0.01243",
"-0.08807 -0.04737 -0.01304",
"-0.08845 -0.04730 -0.01315",
"-0.08737 -0.04730 -0.01223",
"-0.08599 -0.04766 -0.01209",
"-0.08526 -0.04795 -0.01229",
"-0.08471 -0.04777 -0.01184",
"-0.08255 -0.04725 -0.01060",
"-0.08207 -0.04769 -0.00944",
"-0.08039 -0.04783 -0.00942",
"-0.07921 -0.04779 -0.00980",
"-0.07934 -0.04780 -0.00946",
"-0.07930 -0.04760 -0.00890",
"-0.07961 -0.04755 -0.00968",
"-0.07579 -0.04540 -0.00843",
"-0.08335 -0.04053 -0.01707",
"-0.09703 -0.03840 -0.02725",
"-0.09715 -0.03845 -0.02650",
"-0.09715 -0.03845 -0.02650",
"-0.09755 -0.03852 -0.02701",
"-0.09635 -0.03831 -0.02548",
"-0.09515 -0.03810 -0.02395",
"-0.09515 -0.03810 -0.02395",
"-0.09515 -0.03810 -0.02395",
"-0.09569 -0.03823 -0.02426",
"-0.09407 -0.03784 -0.02333",
"-0.09234 -0.03764 -0.02257",
"-0.09190 -0.03840 -0.02325",
"-0.09066 -0.03496 -0.02373",
"-0.09058 -0.03337 -0.02428",
"-0.08958 -0.03470 -0.02311",
"-0.08734 -0.03259 -0.02242",
"-0.08610 -0.02915 -0.02290",
"-0.08636 -0.03021 -0.02258",
"-0.08586 -0.03037 -0.02377",
"-0.08547 -0.03034 -0.02479",
"-0.08475 -0.02936 -0.02426",
"-0.08135 -0.02540 -0.02350",
"-0.08083 -0.02536 -0.02486",
"-0.08062 -0.02529 -0.02541",
"-0.08032 -0.02574 -0.02558",
"-0.07926 -0.02538 -0.02606",
"-0.07570 -0.02170 -0.02610",
"-0.07514 -0.02146 -0.02690",
"-0.07348 -0.02260 -0.02560",
"-0.07113 -0.02076 -0.02460",
"-0.07020 -0.01833 -0.02667",
"-0.06920 -0.01885 -0.02815",
"-0.06552 -0.01861 -0.02647",
"-0.06279 -0.01930 -0.02549",
"-0.06029 -0.01629 -0.02549",
"-0.05604 -0.01332 -0.02475",
"-0.05140 -0.01300 -0.02435",
"-0.04908 -0.01276 -0.02391",
"-0.04856 -0.01325 -0.02456",
"-0.04575 -0.01229 -0.02462",
"-0.03970 -0.00930 -0.02372",
"-0.03610 -0.00610 -0.02600",
"-0.03339 -0.00228 -0.03587",
"-0.02878 -0.00203 -0.03787",
"-0.02394 -0.00129 -0.03574",
"-0.02010 0.00356 -0.03703",
"-0.01540 0.00615 -0.03830",
"-0.01166 0.00545 -0.03742",
"-0.00681 0.00720 -0.03830",
"-0.00224 0.01250 -0.04022",
"0.00227 0.01356 -0.04230",
"0.00715 0.01280 -0.04490",
"0.01384 0.01548 -0.04417",
"0.01760 0.01746 -0.04688",
"0.02410 0.02011 -0.04826",
"0.03132 0.02276 -0.04796",
"0.03415 0.02165 -0.04985",
"0.03924 0.02368 -0.05030",
"0.04659 0.02735 -0.05142",
"0.05099 0.02716 -0.05594",
"0.05506 0.02633 -0.05909",
"0.06450 0.02915 -0.05710",
"0.07149 0.03246 -0.06475",
"0.08213 0.03243 -0.06595",
"0.09274 0.03255 -0.06466",
"0.10135 0.03408 -0.06621",
"0.10750 0.03605 -0.06870",
"0.11094 0.04194 -0.07246",
"0.11504 0.04629 -0.07378",
"0.11828 0.04471 -0.07839",
"0.12072 0.04103 -0.08360",
"0.12435 0.04140 -0.08220",
"0.12570 0.04066 -0.08399",
"0.12575 0.03770 -0.08573",
"0.12601 0.03636 -0.08660",
"0.12590 0.03605 -0.08755",
"0.12320 0.03540 -0.08830",
"0.12148 0.03576 -0.08850",
"0.13252 0.03090 -0.08436",
"0.13951 0.02714 -0.08228",
"0.13681 0.02886 -0.08324",
"0.13775 0.02875 -0.08085",
"0.13631 0.02539 -0.08013",
"0.13455 0.02478 -0.07948",
"0.13203 0.02432 -0.07980",
"0.13040 0.02405 -0.08075",
"0.13040 0.02405 -0.08075",
"0.12896 0.02041 -0.07695",
"0.12726 0.01982 -0.07602",
"0.12648 0.01968 -0.07696",
"0.12699 0.01897 -0.07649",
"0.12605 0.01880 -0.07580",
"0.12340 0.01551 -0.07370",
"0.12103 0.01484 -0.07293",
"0.11842 0.01299 -0.07145",
"0.11655 0.00988 -0.06927",
"0.11650 0.01110 -0.06835",
"0.11804 0.01111 -0.06676",
"0.11687 0.00847 -0.06365",
"0.11565 0.00585 -0.06048",
"0.11567 0.00722 -0.06011",
"0.11555 0.00770 -0.05875",
"0.11321 0.00437 -0.05678",
"0.11212 0.00264 -0.05582",
"0.11243 0.00459 -0.05466",
"0.11116 0.00289 -0.05213",
"0.10680 -0.00035 -0.05085",
"0.10644 0.00001 -0.04981",
"0.10585 -0.00229 -0.04833",
"0.10268 -0.00444 -0.04800",
"0.09888 -0.00290 -0.04829",
"0.09640 -0.00270 -0.04745",
"0.09400 -0.00582 -0.04489",
"0.08967 -0.00707 -0.04378",
"0.08635 -0.00488 -0.04410",
"0.08433 -0.00623 -0.04334",
"0.08090 -0.00910 -0.04100",
"0.07834 -0.00866 -0.04100",
"0.07710 -0.00779 -0.03879",
"0.07714 -0.01009 -0.03483",
"0.07472 -0.01235 -0.03405",
"0.07160 -0.01215 -0.03325",
"0.06990 -0.01446 -0.03142",
"0.06942 -0.01586 -0.02923",
"0.06773 -0.01394 -0.02800",
"0.06453 -0.01536 -0.02697",
"0.06225 -0.01860 -0.02685",
"0.06133 -0.01768 -0.02425",
"0.05920 -0.01613 -0.02263",
"0.05598 -0.01888 -0.02147",
"0.05486 -0.02114 -0.01915",
"0.05410 -0.02050 -0.01735",
"0.05122 -0.02098 -0.01699",
"0.04885 -0.02330 -0.01652",
"0.04835 -0.02490 -0.01424",
"0.04650 -0.02347 -0.01298",
"0.04370 -0.02315 -0.01330",
"0.04154 -0.02647 -0.01098",
"0.04067 -0.02768 -0.00792",
"0.03268 -0.03873 -0.00602",
"0.02431 -0.05218 -0.00432",
"0.02550 -0.04700 -0.00350",
"0.02361 -0.04605 -0.00316",
"0.02600 -0.04212 -0.00351",
"0.02768 -0.03968 -0.00361",
"0.02625 -0.03857 -0.00426",
"0.02725 -0.03445 -0.00430",
"0.02573 -0.03417 -0.00474",
"0.02628 -0.03152 -0.00521",
"0.02614 -0.02966 -0.00567",
"0.02493 -0.02852 -0.00623",
"0.02655 -0.02515 -0.00660",
"0.02695 -0.02367 -0.00536",
"0.02646 -0.02028 -0.00689",
"0.02527 -0.01831 -0.00885",
"0.02273 -0.01672 -0.01413",
"0.01985 -0.01180 -0.02365",
"0.01828 -0.01250 -0.02311",
"0.02136 -0.00564 -0.02049",
"0.02130 0.00513 -0.02854",
"0.01854 0.01242 -0.04125",
"0.01975 0.02000 -0.04505",
"0.01883 0.02760 -0.04763",
"0.01701 0.03538 -0.05741",
"0.01630 0.04290 -0.06353",
"0.01566 0.04744 -0.06710",
"0.01330 0.04875 -0.07815",
"0.01435 0.06545 -0.08359",
"0.02183 0.08120 -0.08218",
"0.02925 0.08737 -0.08533",
"0.03947 0.08868 -0.08913",
"0.05410 0.08785 -0.08495",
"0.06083 0.08686 -0.08241",
"0.06637 0.08674 -0.08291",
"0.07138 0.08601 -0.07955",
"0.07512 0.08417 -0.07189",
"0.07990 0.08235 -0.06625",
"0.08562 0.08435 -0.05517",
"0.08992 0.08309 -0.04569",
"0.09658 0.08207 -0.03661",
"0.10608 0.08263 -0.02707",
"0.11270 0.08230 -0.02090",
"0.11902 0.08178 -0.01362",
"0.11691 0.08091 -0.01075",
"0.12089 0.08184 -0.00663",
"0.13767 0.08089 0.00273",
"0.14840 0.07860 0.00965",
"0.14748 0.07806 0.01047",
"0.15138 0.07702 0.01217",
"0.15514 0.07649 0.01367",
"0.15315 0.07728 0.01293",
"0.14985 0.07585 0.01350",
"0.14473 0.06402 0.01719",
"0.13545 0.04985 0.01991",
"0.13705 0.03399 0.02474",
"0.13872 0.01846 0.02974",
"0.12360 0.00745 0.03040",
"0.11638 0.00528 0.03317",
"0.10887 0.00302 0.03634",
"0.10152 0.00120 0.03626",
"0.09395 -0.00041 0.03408",
"0.08495 -0.00205 0.03260",
"0.07774 -0.00530 0.03179",
"0.06811 -0.00405 0.02669",
"0.05756 -0.00756 0.02288",
"0.04701 -0.02039 0.02249",
"0.03550 -0.03010 0.02110",
"0.02426 -0.03714 0.01990",
"0.01419 -0.04628 0.02017",
"0.00308 -0.05677 0.01937",
"-0.00729 -0.06724 0.01857",
"-0.01290 -0.07290 0.01825",
"-0.01731 -0.07075 0.01657",
"-0.02599 -0.08280 0.02068",
"-0.03086 -0.08920 0.02549",
"-0.03131 -0.08366 0.02613",
"-0.03580 -0.08405 0.02630",
"-0.04342 -0.08370 0.02499",
"-0.03316 -0.08584 0.03015",
"-0.02655 -0.08705 0.03211",
"-0.03160 -0.08603 0.02916",
"-0.03230 -0.08290 0.02835",
"-0.03381 -0.08257 0.02805",
"-0.03584 -0.08320 0.02763",
"-0.03579 -0.08388 0.02824",
"-0.03722 -0.08381 0.02728",
"-0.04090 -0.08405 0.02560",
"-0.04130 -0.08435 0.02690",
"-0.03719 -0.08151 0.02886",
"-0.03591 -0.07827 0.02867",
"-0.03815 -0.07904 0.02847",
"-0.03790 -0.07905 0.02815",
"-0.03697 -0.07786 0.02440",
"-0.03904 -0.07798 0.01990",
"-0.04035 -0.07437 0.01575",
"-0.03922 -0.07262 0.01082",
"-0.04625 -0.07565 -0.00315",
"-0.06679 -0.07377 -0.02840",
"-0.07115 -0.07561 -0.04480",
"-0.06513 -0.07606 -0.07010",
"-0.05924 -0.07603 -0.09658",
"-0.04805 -0.08120 -0.10090",
"-0.03409 -0.07764 -0.11231",
"0.00013 -0.06995 -0.11873",
"0.05624 -0.06763 -0.12580",
"0.11668 -0.07144 -0.12730",
"0.17485 -0.06765 -0.12060",
"0.25956 -0.03220 -0.13588",
"0.38726 0.00121 -0.10486",
"0.51146 0.02833 -0.05399",
"0.63015 0.07860 -0.00314",
"0.77050 0.15620 0.07935",
"0.88084 0.21900 0.17926",
"0.97631 0.26639 0.31630",
"1.08106 0.32985 0.45669",
"1.14728 0.36411 0.57939",
"1.10395 0.32245 0.69150",
"0.97146 0.29752 0.76757",
"0.83965 0.24716 0.84248",
"0.71997 0.17787 0.87993",
"0.58375 0.09401 0.88676",
"0.41475 -0.00075 0.90455",
"0.21829 -0.05817 0.89104",
"-0.00699 -0.14969 0.85530",
"-0.17685 -0.21995 0.83428",
"-0.26611 -0.23163 0.78448",
"-0.31475 -0.23340 0.66460",
"-0.30077 -0.23531 0.57712",
"-0.28997 -0.23544 0.50824",
"-0.28471 -0.24109 0.44430",
"-0.26631 -0.23670 0.37813",
"-0.23900 -0.21035 0.30750",
"-0.21429 -0.18905 0.24843",
"-0.19724 -0.18102 0.20124",
"-0.18372 -0.18223 0.16432",
"-0.16866 -0.17602 0.13157",
"-0.14970 -0.15535 0.09810",
"-0.13222 -0.13697 0.06545",
"-0.12441 -0.13013 0.04684",
"-0.12282 -0.12554 0.03428",
"-0.12056 -0.11967 0.02279",
"-0.11765 -0.11635 0.01630",
"-0.11365 -0.11043 0.01230",
"-0.10917 -0.10344 0.00825",
"-0.10334 -0.09938 0.00479",
"-0.10103 -0.09664 0.00155",
"-0.09950 -0.09390 0.00055",
"-0.09203 -0.09449 0.00330",
"-0.08485 -0.09579 0.00582",
"-0.08212 -0.09615 0.00554",
"-0.08360 -0.09571 0.00441",
"-0.08440 -0.09575 0.00545",
"-0.08572 -0.09555 0.00477",
"-0.08667 -0.09495 0.00374",
"-0.08780 -0.09516 0.00160",
"-0.08784 -0.09595 0.00113",
"-0.08750 -0.09620 0.00250",
"-0.09355 -0.09471 0.00001",
"-0.08169 -0.09659 0.00324",
"-0.07214 -0.09878 0.00662",
"-0.07655 -0.09812 0.00455",
"-0.07900 -0.09725 0.00340",
"-0.08213 -0.09687 0.00202",
"-0.08509 -0.09695 0.00081",
"-0.08727 -0.09684 -0.00014",
"-0.08943 -0.09617 0.00021",
"-0.09070 -0.09590 -0.00055",
"-0.08361 -0.09717 0.00111",
"-0.07396 -0.09899 0.00434",
"-0.07680 -0.09791 -0.00326",
"-0.08889 -0.09491 -0.01447",
"-0.09520 -0.09400 -0.01355",
"-0.09963 -0.09322 -0.01444",
"-0.10285 -0.08960 -0.01719",
"-0.10596 -0.08879 -0.02136",
"-0.10628 -0.09261 -0.02301",
"-0.09890 -0.09280 -0.02050",
"-0.09338 -0.09388 -0.02022",
"-0.08811 -0.09542 -0.02013",
"-0.08726 -0.09485 -0.01751",
"-0.09245 -0.09346 -0.01811",
"-0.09735 -0.09285 -0.02100",
"-0.10219 -0.08829 -0.02324",
"-0.10615 -0.08583 -0.02363",
"-0.10564 -0.08584 -0.02469",
"-0.10317 -0.08667 -0.02549",
"-0.10355 -0.08660 -0.02560",
"-0.10355 -0.08660 -0.02560",
"-0.10079 -0.08678 -0.02449",
"-0.09765 -0.08703 -0.02327",
"-0.09674 -0.08639 -0.02332",
"-0.09550 -0.08295 -0.02380",
"-0.09470 -0.08339 -0.02504",
"-0.09487 -0.08389 -0.02639",
"-0.09368 -0.08343 -0.02526",
"-0.09127 -0.08328 -0.02470",
"-0.08895 -0.08400 -0.02550",
"-0.08895 -0.08400 -0.02550",
"-0.08856 -0.08418 -0.02421",
"-0.08849 -0.08446 -0.02314",
"-0.08819 -0.08333 -0.02316",
"-0.08615 -0.07895 -0.02130",
"-0.08361 -0.07438 -0.01919",
"-0.08168 -0.07027 -0.01852",
"-0.08077 -0.06987 -0.01746",
"-0.08166 -0.06913 -0.01698",
"-0.08060 -0.06600 -0.01655",
"-0.07518 -0.06333 -0.01582",
"-0.06678 -0.06338 -0.01196",
"-0.06522 -0.06217 -0.01008",
"-0.07156 -0.05661 -0.01351",
"-0.07640 -0.05205 -0.01575",
"-0.08248 -0.05093 -0.01751",
"-0.08738 -0.04724 -0.01995",
"-0.08758 -0.04456 -0.01946",
"-0.08501 -0.04584 -0.01725",
"-0.08265 -0.04540 -0.01625",
"-0.08145 -0.04216 -0.01729",
"-0.07806 -0.04031 -0.01702",
"-0.07592 -0.04222 -0.01472",
"-0.07480 -0.04046 -0.01341",
"-0.07140 -0.03650 -0.01265",
"-0.07120 -0.03658 -0.01289",
"-0.06878 -0.03724 -0.01206",
"-0.06520 -0.03469 -0.01026",
"-0.06502 -0.03173 -0.01278",
"-0.06580 -0.03095 -0.01710",
"-0.06439 -0.03179 -0.01461",
"-0.05965 -0.02886 -0.01397",
"-0.05735 -0.02548 -0.01600",
"-0.05607 -0.02640 -0.01655",
"-0.05295 -0.02660 -0.01735",
"-0.05227 -0.02360 -0.02031",
"-0.04962 -0.02174 -0.02026",
"-0.04615 -0.02347 -0.01898",
"-0.04286 -0.02199 -0.02067",
"-0.03850 -0.01875 -0.02195",
"-0.03794 -0.01851 -0.02275",
"-0.03586 -0.01867 -0.02406",
"-0.03217 -0.01870 -0.02338",
"-0.03029 -0.01863 -0.02413",
"-0.02770 -0.01680 -0.02675",
"-0.02365 -0.01349 -0.02781",
"-0.01884 -0.00945 -0.02900",
"-0.01472 -0.00950 -0.02850",
"-0.00852 -0.00994 -0.02901",
"0.00010 -0.00845 -0.03285",
"0.00817 -0.00581 -0.02956",
"0.01208 -0.00527 -0.02826",
"0.01678 -0.00538 -0.02913",
"0.02362 -0.00306 -0.03122",
"0.02830 -0.00065 -0.03245",
"0.02609 -0.00040 -0.03283",
"0.02788 0.00560 -0.03744",
"0.03257 0.01030 -0.04320",
"0.03956 0.01143 -0.04754",
"0.04875 0.01350 -0.05260",
"0.05495 0.01803 -0.05798",
"0.07041 0.02289 -0.05586",
"0.08338 0.02399 -0.05516",
"0.09245 0.03096 -0.06111",
"0.10495 0.04565 -0.06595",
"0.10697 0.04341 -0.06694",
"0.10392 0.04139 -0.07109",
"0.11213 0.04108 -0.07155",
"0.12334 0.03966 -0.07015",
"0.11990 0.04030 -0.07355",
"0.11880 0.04117 -0.07410",
"0.13369 0.04031 -0.07089",
"0.14583 0.03619 -0.06752",
"0.14814 0.03399 -0.06633",
"0.15095 0.03365 -0.06715",
"0.14933 0.03175 -0.06803",
"0.15092 0.03136 -0.07179",
"0.15275 0.03149 -0.07437",
"0.15296 0.03130 -0.07416",
"0.15295 0.03125 -0.07430",
"0.14904 0.02742 -0.07560",
"0.15030 0.02549 -0.07334",
"0.15037 0.02583 -0.07925",
"0.14809 0.02729 -0.08710",
"0.14880 0.02695 -0.08385",
"0.14740 0.02551 -0.08381",
"0.14685 0.02340 -0.08185",
"0.15050 0.03191 -0.08091",
"0.15505 0.04292 -0.08152",
"0.15375 0.03800 -0.08160",
"0.15136 0.03464 -0.07802",
"0.15561 0.03330 -0.07497",
"0.15666 0.03079 -0.07266",
"0.15331 0.02942 -0.07047",
"0.15255 0.02930 -0.06895",
"0.14911 0.02638 -0.06675",
"0.14566 0.02614 -0.06488",
"0.14162 0.02593 -0.06225",
"0.13974 0.02185 -0.05781",
"0.13890 0.01865 -0.05425",
"0.13569 0.01994 -0.05245",
"0.14150 0.01710 -0.04734",
"0.14559 0.01358 -0.04636",
"0.14107 0.01280 -0.04839",
"0.13835 0.01110 -0.04540",
"0.13728 0.01155 -0.04262",
"0.13482 0.01102 -0.04066",
"0.13070 0.00719 -0.03813",
"0.12796 0.00577 -0.03512",
"0.12760 0.00585 -0.03100",
"0.12481 0.00344 -0.02580",
"0.12941 0.00158 -0.02035",
"0.13169 -0.00177 -0.01991",
"0.12720 -0.00373 -0.02061",
"0.12520 -0.00230 -0.01750",
"0.11960 -0.00574 -0.01654",
"0.11390 -0.01027 -0.01575",
"0.10906 -0.01074 -0.01480",
"0.10438 -0.01078 -0.01410",
"0.09910 -0.01330 -0.01350",
"0.09630 -0.01242 -0.01078",
"0.09142 -0.01495 -0.00986",
"0.08596 -0.01678 -0.00907",
"0.08056 -0.01628 -0.00823",
"0.07840 -0.01630 -0.00745",
"0.08730 -0.01756 -0.00127",
"0.08293 -0.03075 0.00304",
"0.07609 -0.03562 0.00468",
"0.07544 -0.03028 0.00503",
"0.07325 -0.03050 0.00575",
"0.06993 -0.03022 0.00679",
"0.06692 -0.02907 0.00777",
"0.06736 -0.02875 0.00828",
"0.06608 -0.02916 0.00762",
"0.06190 -0.02840 0.00730",
"0.06118 -0.02836 0.00890",
"0.06010 -0.02729 0.01021",
"0.05716 -0.02704 0.01048",
"0.05449 -0.02727 0.01021",
"0.05215 -0.02590 0.00860",
"0.05113 -0.02501 0.01075",
"0.04778 -0.02521 0.01152",
"0.04379 -0.02483 0.01079",
"0.04342 -0.02404 0.01185",
"0.04270 -0.02400 0.01345",
"0.03602 -0.02425 0.01197",
"0.03184 -0.02512 0.00960",
"0.03120 -0.02539 0.00694",
"0.02797 -0.02449 0.00434",
"0.02405 -0.02405 0.00310",
"0.02185 -0.02397 0.00206",
"0.01895 -0.02365 -0.00010",
"0.01742 -0.02343 -0.00159",
"0.01911 -0.02348 -0.00177",
"0.02265 -0.02355 -0.00190",
"0.02928 -0.01352 -0.00200",
"0.03068 -0.00213 -0.00793",
"0.03089 0.00949 -0.01413",
"0.03278 0.02044 -0.02004",
"0.03095 0.02670 -0.02840",
"0.03033 0.03298 -0.03468",
"0.03546 0.05361 -0.04354",
"0.03850 0.06825 -0.05184",
"0.03828 0.06867 -0.05560",
"0.04165 0.07210 -0.05805",
"0.04797 0.07600 -0.05987",
"0.05344 0.07422 -0.06366",
"0.06102 0.08626 -0.07026",
"0.07130 0.10323 -0.07338",
"0.07680 0.10345 -0.06920",
"0.08247 0.10284 -0.06515",
"0.08484 0.10191 -0.06172",
"0.08848 0.10148 -0.05774",
"0.09275 0.10153 -0.05283",
"0.09515 0.10105 -0.04815",
"0.09855 0.10169 -0.04323",
"0.10138 0.10163 -0.03697",
"0.10027 0.10111 -0.03324",
"0.10466 0.10052 -0.02777",
"0.11640 0.09905 -0.01850",
"0.11884 0.09859 -0.01408",
"0.12727 0.09670 -0.00779",
"0.14486 0.09448 0.00137",
"0.15934 0.09338 0.01054",
"0.16225 0.09235 0.01850",
"0.16490 0.08913 0.02946",
"0.17079 0.09548 0.03060",
"0.17666 0.09904 0.02638",
"0.18435 0.10465 0.01828",
"0.18975 0.11900 0.00615",
"0.18194 0.10649 0.01034",
"0.18443 0.09001 0.01945",
"0.18560 0.07737 0.02528",
"0.17540 0.06206 0.02999",
"0.16695 0.04960 0.03475",
"0.16457 0.04642 0.03963",
"0.15814 0.04426 0.04185",
"0.15303 0.04109 0.04379",
"0.14963 0.03731 0.04748",
"0.13875 0.03590 0.04895",
"0.12768 0.03244 0.04995",
"0.11805 0.03407 0.05008",
"0.10878 0.03026 0.05304",
"0.09705 0.01946 0.05455",
"0.07995 0.01080 0.04830",
"0.06699 0.00496 0.04686",
"0.05462 -0.00370 0.04634",
"0.04106 -0.01384 0.04356",
"0.02944 -0.02413 0.04189",
"0.01945 -0.02960 0.04110",
"0.01038 -0.02915 0.03804",
"0.00382 -0.02803 0.04032",
"-0.00151 -0.02735 0.04235",
"-0.00674 -0.03530 0.04582",
"-0.01300 -0.04860 0.05130",
"-0.01155 -0.04598 0.04958",
"-0.00997 -0.04356 0.04983",
"-0.01092 -0.04453 0.05156",
"-0.01242 -0.04401 0.04986",
"-0.01200 -0.04360 0.04745",
"-0.01018 -0.04031 0.04684",
"-0.01148 -0.03925 0.04642",
"-0.01220 -0.03886 0.04549",
"-0.01141 -0.03880 0.04486",
"-0.01145 -0.03900 0.04430",
"-0.01173 -0.03528 0.04338",
"-0.01125 -0.03423 0.04298",
"-0.01122 -0.03387 0.04109",
"-0.01213 -0.03368 0.03989",
"-0.01365 -0.03340 0.03945",
"-0.01347 -0.03309 0.03854",
"-0.01197 -0.03037 0.03815",
"-0.01129 -0.02822 0.03698",
"-0.00980 -0.02989 0.03464",
"-0.00725 -0.03055 0.03250",
"-0.00535 -0.03112 0.03194",
"-0.01446 -0.02977 0.01852",
"-0.02977 -0.03041 -0.00546",
"-0.04719 -0.03246 -0.03129",
"-0.06110 -0.03270 -0.05570",
"-0.05060 -0.03453 -0.08059",
"-0.02923 -0.03485 -0.08994",
"0.00016 -0.05321 -0.08847",
"0.03848 -0.06708 -0.09135",
"0.09055 -0.05145 -0.10135",
"0.16850 -0.04370 -0.10908",
"0.24157 -0.02877 -0.11056",
"0.32316 -0.01785 -0.10667",
"0.43392 0.00229 -0.09329",
"0.57015 0.05140 -0.05615",
"0.71469 0.10223 0.00897",
"0.84361 0.17175 0.08726",
"0.95320 0.24567 0.18947",
"1.06411 0.30253 0.32095",
"1.18200 0.35115 0.46490",
"1.24940 0.40346 0.60093",
"1.21877 0.40282 0.70549",
"1.11523 0.38407 0.76464",
"0.99011 0.37530 0.80037",
"0.87265 0.33850 0.84550",
"0.75087 0.26032 0.87948",
"0.58970 0.19991 0.86130",
"0.39968 0.14204 0.82919",
"0.18086 0.05883 0.80164",
"-0.04195 -0.02725 0.76770",
"-0.16207 -0.07057 0.74404",
"-0.22631 -0.08202 0.66035",
"-0.25542 -0.09097 0.56140",
"-0.25537 -0.10046 0.49486",
"-0.24615 -0.10825 0.44165",
"-0.24726 -0.13751 0.39089",
"-0.23356 -0.14142 0.34111",
"-0.21058 -0.13100 0.28911",
"-0.19161 -0.12809 0.23951",
"-0.17570 -0.12140 0.20090",
"-0.16397 -0.11269 0.16508",
"-0.15210 -0.10416 0.13157",
"-0.14079 -0.09674 0.09792",
"-0.13199 -0.09279 0.07190",
"-0.12495 -0.08925 0.06185",
"-0.12310 -0.08749 0.05403",
"-0.12067 -0.08211 0.04869",
"-0.11882 -0.07740 0.04436",
"-0.11643 -0.07402 0.04024",
"-0.10970 -0.06810 0.03665",
"-0.10698 -0.06534 0.03277",
"-0.10478 -0.06255 0.02948",
"-0.10293 -0.06139 0.02871",
"-0.10164 -0.06076 0.02862",
"-0.10020 -0.05740 0.02790",
"-0.09752 -0.05684 0.02778",
"-0.09717 -0.05761 0.02773",
"-0.09608 -0.05487 0.02745",
"-0.09447 -0.05209 0.02581",
"-0.09395 -0.05205 0.02445",
"-0.09031 -0.04877 0.02477",
"-0.08831 -0.04724 0.02500",
"-0.08829 -0.04917 0.02571",
"-0.08765 -0.04728 0.02498",
"-0.08585 -0.04360 0.02370",
"-0.08585 -0.04360 0.02370",
"-0.08565 -0.04382 0.02525",
"-0.08469 -0.04388 0.02576",
"-0.08388 -0.04301 0.02432",
"-0.08240 -0.04025 0.02340",
"-0.08240 -0.04025 0.02340",
"-0.08267 -0.04025 0.02317",
"-0.08224 -0.04018 0.02375",
"-0.08074 -0.03939 0.02443",
"-0.07950 -0.03595 0.02395",
"-0.08102 -0.03567 0.02351",
"-0.08232 -0.03566 0.02298",
"-0.08004 -0.03522 0.02362",
"-0.08267 -0.03605 0.02148",
"-0.09055 -0.03905 0.01780",
"-0.08731 -0.03529 0.01836",
"-0.08615 -0.03415 0.01762",
"-0.08722 -0.03452 0.01607",
"-0.08695 -0.03440 0.01635",
"-0.08695 -0.03440 0.01635",
"-0.08495 -0.03188 0.01715",
"-0.08240 -0.03083 0.01763",
"-0.08033 -0.02998 0.01800",
"-0.08112 -0.03050 0.01738",
"-0.08240 -0.03090 0.01650",
"-0.08250 -0.03071 0.01599",
"-0.08324 -0.02923 0.02054",
"-0.08422 -0.02817 0.02403",
"-0.08361 -0.02940 0.02387",
"-0.08165 -0.02880 0.02535",
"-0.08317 -0.02852 0.02491",
"-0.08373 -0.02794 0.02513",
"-0.08391 -0.02743 0.02546",
"-0.08390 -0.02758 0.02541",
"-0.08410 -0.02750 0.02565",
"-0.08218 -0.02630 0.02733",
"-0.08169 -0.02676 0.02809",
"-0.08178 -0.02431 0.02718",
"-0.08216 -0.02116 0.02677",
"-0.08260 -0.02040 0.02745",
"-0.08260 -0.02040 0.02745",
"-0.08314 -0.02053 0.02714",
"-0.08152 -0.02014 0.02807",
"-0.08022 -0.01985 0.02878",
"-0.08150 -0.02025 0.02790",
"-0.08166 -0.01997 0.02870",
"-0.08162 -0.01974 0.02958",
"-0.08223 -0.02010 0.02757",
"-0.08002 -0.01995 0.03040",
"-0.07450 -0.01675 0.03860",
"-0.07751 -0.01590 0.03528",
"-0.07772 -0.01237 0.03230",
"-0.07838 -0.00981 0.03114",
"-0.08056 -0.00755 0.02793",
"-0.08060 -0.00240 0.02520",
"-0.08532 -0.00205 0.02699",
"-0.08515 -0.00223 0.02628",
"-0.08163 0.00082 0.02480",
"-0.08160 0.00364 0.02681",
"-0.08275 0.00540 0.02990",
"-0.08178 0.00937 0.02944",
"-0.08293 0.01070 0.02794",
"-0.08069 0.01261 0.02744",
"-0.07802 0.01588 0.02747",
"-0.07985 0.01530 0.02715",
"-0.07996 0.01356 0.02627",
"-0.07655 0.02120 0.02416",
"-0.07197 0.03402 0.02114",
"-0.07082 0.03964 0.02033",
"-0.07185 0.03510 0.02265",
"-0.07115 0.03521 0.02266",
"-0.06869 0.03617 0.02333",
"-0.06776 0.03396 0.02353",
"-0.06739 0.03188 0.02384",
"-0.06465 0.03225 0.02495",
"-0.05901 0.03145 0.02639",
"-0.05618 0.02816 0.02787",
"-0.05245 0.02485 0.02815",
"-0.04652 0.02477 0.02798",
"-0.04370 0.02400 0.02795",
"-0.04346 0.02209 0.02558",
"-0.03972 0.03316 0.02281",
"-0.03402 0.04560 0.02071",
"-0.03059 0.04952 0.01892",
"-0.02945 0.05350 0.01540",
"-0.02304 0.05770 0.01238",
"-0.01834 0.05911 0.01168",
"-0.01566 0.05941 0.00920",
"-0.01022 0.06400 0.00431",
"-0.00235 0.07360 0.00055",
"0.00183 0.07729 -0.00291",
"0.00413 0.07695 -0.00489",
"0.01260 0.07707 -0.00820",
"0.02192 0.07743 -0.01308",
"0.02775 0.07630 -0.01530",
"0.03941 0.08253 -0.01610",
"0.04794 0.08578 -0.02105",
"0.05530 0.08868 -0.03064",
"0.06264 0.09176 -0.03654",
"0.06730 0.09420 -0.03755",
"0.07542 0.10565 -0.04041",
"0.08230 0.11835 -0.04689",
"0.08194 0.12010 -0.05083",
"0.08043 0.11504 -0.05307",
"0.08400 0.11580 -0.05975",
"0.08554 0.11491 -0.06267",
"0.08709 0.11502 -0.06240",
"0.09033 0.11430 -0.06395",
"0.09228 0.11241 -0.06927",
"0.09150 0.11205 -0.07115",
"0.09151 0.11210 -0.07101",
"0.09219 0.11173 -0.07279",
"0.09245 0.11075 -0.07333",
"0.09383 0.11050 -0.07484",
"0.09810 0.11065 -0.07910",
"0.10189 0.10905 -0.07763",
"0.10726 0.10487 -0.07440",
"0.11023 0.10179 -0.07446",
"0.11200 0.10332 -0.07809",
"0.11415 0.10420 -0.08115",
"0.11562 0.10360 -0.07901",
"0.11523 0.10315 -0.07557",
"0.11650 0.10206 -0.07573",
"0.11916 0.10140 -0.08040",
"0.12070 0.10340 -0.08250",
"0.12174 0.10311 -0.08135",
"0.12241 0.10263 -0.08061",
"0.12145 0.10281 -0.08115",
"0.12044 0.10271 -0.08037",
"0.11910 0.10270 -0.07920",
"0.11530 0.09890 -0.07948",
"0.11332 0.09785 -0.08006",
"0.11453 0.09861 -0.07708",
"0.11378 0.09904 -0.07482",
"0.11150 0.09900 -0.07470",
"0.11178 0.09568 -0.07022",
"0.11212 0.09504 -0.06570",
"0.11082 0.09503 -0.06215",
"0.11072 0.09526 -0.05915",
"0.11050 0.09545 -0.05650",
"0.10892 0.09582 -0.05283",
"0.10433 0.09357 -0.05167",
"0.10314 0.09129 -0.04999",
"0.10190 0.09222 -0.04791",
"0.09730 0.09210 -0.04775",
"0.09766 0.09214 -0.04523",
"0.09847 0.09390 -0.04313",
"0.09416 0.08987 -0.04232",
"0.08775 0.08381 -0.04050",
"0.08375 0.08065 -0.03750",
"0.07985 0.07348 -0.03401",
"0.07490 0.06992 -0.03077",
"0.07032 0.06538 -0.02709",
"0.06627 0.06042 -0.02281",
"0.06155 0.05850 -0.01925",
"0.05469 0.05501 -0.01876",
"0.05062 0.05401 -0.01849",
"0.04667 0.05685 -0.01990",
"0.04301 0.05570 -0.01894",
"0.04105 0.05310 -0.01610",
"0.04009 0.05382 -0.01406",
"0.03965 0.05488 -0.01356",
"0.03926 0.05335 -0.01139",
"0.03312 0.05087 -0.01095",
"0.02380 0.04855 -0.01475",
"0.02000 0.04879 -0.01587",
"0.01742 0.04655 -0.01429",
"0.01734 0.04396 -0.01303",
"0.01897 0.04537 -0.01153",
"0.01935 0.04580 -0.00940",
"0.01739 0.04240 -0.00732",
"0.01602 0.04117 -0.00533",
"0.01482 0.04297 -0.00449",
"0.01144 0.04093 -0.00418",
"0.00780 0.03765 -0.00450",
"0.00442 0.03704 -0.00653",
"0.00204 0.03857 -0.00633",
"0.00484 0.04226 -0.00484",
"0.01008 0.04507 -0.00471",
"0.01135 0.04480 -0.00395",
"0.01179 0.04568 -0.00291",
"0.00994 0.04638 -0.00432",
"0.01035 0.04685 -0.00522",
"0.01210 0.04759 -0.00343",
"0.00960 0.04850 -0.00350",
"0.00692 0.04822 -0.00646",
"0.00467 0.04828 -0.00798",
"-0.00409 0.04686 -0.01158",
"-0.01216 0.04559 -0.01623",
"-0.01020 0.04645 -0.01505",
"-0.00900 0.05293 -0.01689",
"-0.00564 0.05739 -0.01624",
"-0.00467 0.06229 -0.01852",
"-0.00836 0.06422 -0.02450",
"-0.01040 0.06500 -0.02840",
"-0.00532 0.08006 -0.03298",
"-0.00594 0.08735 -0.03863",
"-0.00719 0.08979 -0.04287",
"-0.00537 0.09503 -0.04580",
"-0.00685 0.09825 -0.04930",
"-0.01000 0.09780 -0.05365",
"-0.00467 0.10456 -0.05691",
"-0.00170 0.11214 -0.05650",
"-0.00262 0.11331 -0.05866",
"0.00290 0.11675 -0.06775",
"0.01353 0.13469 -0.06675",
"0.01963 0.13764 -0.06284",
"0.01825 0.13370 -0.06140",
"0.01883 0.13418 -0.06067",
"0.02705 0.13370 -0.05585",
"0.02988 0.12990 -0.05066",
"0.03062 0.12717 -0.04786",
"0.03712 0.12647 -0.03666",
"0.04418 0.12311 -0.02547",
"0.04310 0.11990 -0.02700",
"0.04667 0.11730 -0.01815",
"0.05257 0.11547 -0.01672",
"0.04805 0.11297 -0.02383",
"0.04901 0.10944 -0.01969",
"0.06910 0.10430 -0.00210",
"0.07250 0.10351 -0.00253",
"0.07150 0.10010 0.00265",
"0.07504 0.09520 0.00562",
"0.07716 0.09451 0.00148",
"0.07450 0.09495 0.00110",
"0.07563 0.09248 -0.00196",
"0.07550 0.09108 0.00097",
"0.07569 0.09226 0.00604",
"0.08165 0.08923 0.01071",
"0.09040 0.07930 0.01870",
"0.08873 0.07544 0.02404",
"0.08339 0.07427 0.02916",
"0.07773 0.07071 0.03292",
"0.07441 0.06671 0.03846",
"0.07145 0.06410 0.04585",
"0.06789 0.06353 0.05012",
"0.06469 0.05846 0.05519",
"0.05759 0.05495 0.05651",
"0.05424 0.05320 0.05678",
"0.05360 0.04830 0.05760",
"0.03241 0.04180 0.04599",
"0.02477 0.03570 0.03780",
"0.02796 0.03216 0.03343",
"0.02125 0.02824 0.03049",
"0.00330 0.02265 0.03175",
"-0.01181 0.02134 0.03349",
"-0.02125 0.01621 0.03347",
"-0.02620 0.01194 0.03443",
"-0.03562 0.00698 0.03386",
"-0.05000 -0.00335 0.02955",
"-0.05158 -0.00640 0.03084",
"-0.05385 -0.00895 0.03566",
"-0.05555 -0.01142 0.03704",
"-0.05510 -0.01047 0.03495",
"-0.05675 -0.01020 0.03485",
"-0.05803 -0.01384 0.03477",
"-0.05787 -0.01555 0.03424",
"-0.05795 -0.01334 0.03335",
"-0.06001 -0.01507 0.03338",
"-0.06115 -0.01865 0.03310",
"-0.05999 -0.01769 0.02898",
"-0.06455 -0.01771 0.03155",
"-0.06941 -0.02095 0.03264",
"-0.06934 -0.02305 0.02931",
"-0.06980 -0.02295 0.02755",
"-0.07128 -0.02219 0.02459",
"-0.07290 -0.02458 0.02354",
"-0.07349 -0.02751 0.02306",
"-0.07397 -0.02618 0.02050",
"-0.07550 -0.02540 0.01760",
"-0.07780 -0.02891 0.01527",
"-0.07744 -0.03075 0.01411",
"-0.07311 -0.02767 0.00040",
"-0.08821 -0.04135 -0.02726",
"-0.12225 -0.07395 -0.05100",
"-0.10506 -0.06524 -0.06170",
"-0.08803 -0.05344 -0.06618",
"-0.07060 -0.04813 -0.07774",
"-0.02957 -0.04470 -0.08808",
"0.02785 -0.04380 -0.08995",
"0.08868 -0.03884 -0.10964",
"0.15050 -0.03204 -0.11508",
"0.23105 -0.01949 -0.11769",
"0.33384 0.00318 -0.12564",
"0.45245 0.04230 -0.11065",
"0.60060 0.10344 -0.05533",
"0.74409 0.17101 0.01388",
"0.86215 0.24089 0.10133",
"0.98948 0.32288 0.21581",
"1.14980 0.40985 0.35085",
"1.25233 0.46150 0.48484",
"1.23706 0.45415 0.59041",
"1.17441 0.44529 0.67037",
"1.08997 0.44376 0.72940",
"0.95545 0.40910 0.76660",
"0.82804 0.35892 0.78872",
"0.70393 0.28792 0.80550",
"0.53402 0.21687 0.79844",
"0.31726 0.14637 0.77899",
"0.08530 0.05740 0.77010",
"-0.14288 -0.02436 0.73852",
"-0.24444 -0.03653 0.67005",
"-0.25930 -0.02612 0.58995",
"-0.27936 -0.05278 0.52610",
"-0.30730 -0.09945 0.47600",
"-0.29488 -0.09975 0.41947",
"-0.28612 -0.09882 0.36626",
"-0.27688 -0.10573 0.31597",
"-0.25429 -0.10783 0.26550",
"-0.23880 -0.10940 0.21620",
"-0.23585 -0.11035 0.17219",
"-0.22701 -0.10881 0.13903",
"-0.21343 -0.10427 0.10885",
"-0.20005 -0.10084 0.07881",
"-0.18960 -0.09770 0.05525",
"-0.18507 -0.09264 0.03697",
"-0.18094 -0.08371 0.02664",
"-0.17935 -0.07445 0.01726",
"-0.17228 -0.06815 0.01154",
"-0.15525 -0.06440 0.01460",
"-0.15291 -0.06235 0.01167",
"-0.15171 -0.06010 0.00936",
"-0.14737 -0.05910 0.00888",
"-0.14364 -0.05866 0.00832",
"-0.14115 -0.05545 0.00810",
"-0.13938 -0.05527 0.00865",
"-0.13828 -0.05384 0.00541",
"-0.13555 -0.04804 0.00286",
"-0.13386 -0.04567 0.00285",
"-0.13370 -0.04595 0.00205",
"-0.13246 -0.04251 0.00157",
"-0.13160 -0.04196 0.00058",
"-0.12929 -0.04043 0.00005",
"-0.12627 -0.03742 0.00066",
"-0.12665 -0.03735 0.00055",
"-0.12801 -0.03735 -0.00069",
"-0.12613 -0.03729 -0.00100",
"-0.12435 -0.03740 -0.00143",
"-0.12435 -0.03737 -0.00136",
"-0.12440 -0.03735 -0.00130",
"-0.12364 -0.03799 -0.00310",
"-0.12168 -0.03782 -0.00280",
"-0.11953 -0.03756 -0.00194",
"-0.11829 -0.03709 -0.00187",
"-0.11705 -0.03365 -0.00235",
"-0.11625 -0.03409 -0.00359",
"-0.11445 -0.03364 -0.00249",
"-0.11265 -0.03316 -0.00132",
"-0.11305 -0.03340 -0.00195",
"-0.11305 -0.03340 -0.00195",
"-0.11461 -0.03392 -0.00243",
"-0.11831 -0.03477 0.00022",
"-0.11397 -0.03617 0.00316",
"-0.10794 -0.03673 0.00307",
"-0.11240 -0.03585 0.00045",
"-0.11248 -0.03221 -0.00071",
"-0.11313 -0.03122 -0.00079",
"-0.11631 -0.03049 -0.00328",
"-0.11773 -0.03059 -0.00092",
"-0.11520 -0.03225 0.00815",
"-0.11659 -0.02801 0.00628",
"-0.11233 -0.02775 0.00604",
"-0.11015 -0.02822 0.00684",
"-0.11248 -0.02778 0.00624",
"-0.11210 -0.02785 0.00635",
"-0.11086 -0.02441 0.00587",
"-0.11013 -0.02337 0.00515",
"-0.10978 -0.02287 0.00471",
"-0.11044 -0.02213 0.00510",
"-0.11160 -0.02105 0.00430",
"-0.11556 -0.01837 0.00498",
"-0.11782 -0.01410 0.00535",
"-0.11802 -0.01082 0.00459",
"-0.11933 -0.01105 0.00379",
"-0.12005 -0.01025 0.00335",
"-0.12195 -0.00990 0.00280",
"-0.12127 -0.00731 0.00276",
"-0.12605 -0.00357 -0.00043",
"-0.13055 -0.00355 -0.00270",
"-0.12485 -0.00460 -0.00105",
"-0.12210 -0.00394 0.00071",
"-0.12099 -0.00798 0.00201",
"-0.11223 0.00210 0.00249",
"-0.10282 0.01848 0.00169",
"-0.10410 0.02055 0.00090",
"-0.10566 0.02063 -0.00010",
"-0.10751 0.02088 -0.00085",
"-0.10765 0.02128 -0.00138",
"-0.10939 0.02119 0.00040",
"-0.11465 0.02065 0.00540",
"-0.11385 0.02076 0.00491",
"-0.11440 0.02089 0.00470",
"-0.11517 0.02430 0.00479",
"-0.11521 0.02699 0.00344",
"-0.11635 0.02750 0.00185",
"-0.11788 0.02773 0.00127",
"-0.11948 0.02825 0.00187",
"-0.12088 0.02918 0.00184",
"-0.12077 0.02931 0.00116",
"-0.11715 0.02780 0.00115",
"-0.11433 0.02663 -0.00024",
"-0.10830 0.02922 -0.00000",
"-0.10130 0.03083 0.00125",
"-0.10051 0.03057 0.00157",
"-0.10525 0.03140 -0.00010",
"-0.10789 0.03047 -0.00185",
"-0.10523 0.04601 -0.00618",
"-0.10651 0.05346 -0.00787",
"-0.10873 0.04493 -0.00612",
"-0.10460 0.04200 -0.00545",
"-0.10583 0.03861 -0.00483",
"-0.10419 0.03437 -0.00438",
"-0.10258 0.03107 -0.00518",
"-0.10335 0.02442 -0.00609",
"-0.10040 0.02200 -0.00775",
"-0.08885 0.04650 -0.01123",
"-0.08282 0.05722 -0.01314",
"-0.08025 0.05321 -0.01283",
"-0.07402 0.05777 -0.01419",
"-0.06575 0.07040 -0.01805",
"-0.06204 0.06654 -0.01881",
"-0.05878 0.06130 -0.01804",
"-0.05372 0.05872 -0.01715",
"-0.04762 0.05405 -0.01754",
"-0.04140 0.05415 -0.01915",
"-0.03152 0.06788 -0.02084",
"-0.01632 0.08288 -0.02537",
"-0.00499 0.08734 -0.02936",
"0.00545 0.09338 -0.03098",
"0.01855 0.11045 -0.03440",
"0.02441 0.10680 -0.03518",
"0.03075 0.10287 -0.03429",
"0.03761 0.10209 -0.03924",
"0.04307 0.10084 -0.05297",
"0.04490 0.10120 -0.06715",
"0.04456 0.10245 -0.06671",
"0.04222 0.10346 -0.06422",
"0.03955 0.10277 -0.06928",
"0.04236 0.10123 -0.07420",
"0.05125 0.09995 -0.07100",
"0.05677 0.09914 -0.07076",
"0.06443 0.09761 -0.06945",
"0.07224 0.09682 -0.06879",
"0.07797 0.09592 -0.07445",
"0.08360 0.09430 -0.08410",
"0.08402 0.09442 -0.08802",
"0.08428 0.09448 -0.08845",
"0.08510 0.09334 -0.09285",
"0.08497 0.09233 -0.09748",
"0.08515 0.09215 -0.09800",
"0.08543 0.09195 -0.10096",
"0.08542 0.09132 -0.10217",
"0.08639 0.09114 -0.10271",
"0.08823 0.09064 -0.10695",
"0.08995 0.08785 -0.11210",
"0.09050 0.08902 -0.11103",
"0.09013 0.09132 -0.10980",
"0.08959 0.08893 -0.10784",
"0.08845 0.08652 -0.10526",
"0.08875 0.08725 -0.10195",
"0.08972 0.08757 -0.09890",
"0.08344 0.08665 -0.10015",
"0.08955 0.08241 -0.09284",
"0.10426 0.07732 -0.08414",
"0.10350 0.07745 -0.08925",
"0.10074 0.07838 -0.08852",
"0.09906 0.07606 -0.08667",
"0.09748 0.07429 -0.08578",
"0.09449 0.07612 -0.08536",
"0.09015 0.07575 -0.08555",
"0.09033 0.07576 -0.08520",
"0.08639 0.07441 -0.08462",
"0.08928 0.07175 -0.08220",
"0.09578 0.07132 -0.07998",
"0.09245 0.07210 -0.07845",
"0.09043 0.06996 -0.07608",
"0.09100 0.06943 -0.07404",
"0.09018 0.06920 -0.07165",
"0.08801 0.07026 -0.06979",
"0.08770 0.07140 -0.06805",
"0.08376 0.06779 -0.06812",
"0.08423 0.06737 -0.06694",
"0.08460 0.06772 -0.06502",
"0.08365 0.06747 -0.06454",
"0.08345 0.06755 -0.06430",
"0.08313 0.06487 -0.06190",
"0.08206 0.06105 -0.05981",
"0.07989 0.05993 -0.06060",
"0.07938 0.05863 -0.05551",
"0.08090 0.05500 -0.04450",
"0.08071 0.05576 -0.04277",
"0.07077 0.05181 -0.04722",
"0.06463 0.04844 -0.04219",
"0.06493 0.04817 -0.03324",
"0.06040 0.04475 -0.03350",
"0.05549 0.04137 -0.03246",
"0.05051 0.04177 -0.03257",
"0.04520 0.03975 -0.03294",
"0.04156 0.03783 -0.03219",
"0.03795 0.03885 -0.03145",
"0.02945 0.03473 -0.03130",
"0.02486 0.03309 -0.02972",
"0.02690 0.03103 -0.02659",
"0.02899 0.02597 -0.02364",
"0.02555 0.02335 -0.02270",
"0.02169 0.02030 -0.02117",
"0.02075 0.02006 -0.01966",
"0.01965 0.02040 -0.01861",
"0.01536 0.01644 -0.01742",
"0.01030 0.01265 -0.01715",
"0.00990 0.01361 -0.01591",
"0.01002 0.01170 -0.01486",
"0.00884 0.00853 -0.01188",
"0.00728 0.00543 -0.00901",
"0.00715 0.00705 -0.00845",
"0.01454 0.02389 -0.00883",
"0.02350 0.04867 -0.01033",
"0.02490 0.05761 -0.01119",
"0.02323 0.05255 -0.00885",
"0.02525 0.05350 -0.00710",
"0.02549 0.05282 -0.00754",
"0.02522 0.05267 -0.00789",
"0.02580 0.05262 -0.00613",
"0.02324 0.05189 -0.00690",
"0.01335 0.05065 -0.01235",
"0.00275 0.05279 -0.01669",
"-0.00311 0.05389 -0.01864",
"-0.00982 0.05473 -0.02323",
"-0.00786 0.05441 -0.02603",
"0.00835 0.05245 -0.02190",
"0.00529 0.05613 -0.02615",
"-0.00200 0.06832 -0.03686",
"0.00981 0.08959 -0.04452",
"0.02142 0.10574 -0.05173",
"0.00870 0.11060 -0.06410",
"0.00136 0.12685 -0.07472",
"0.00094 0.12883 -0.08055",
"0.00397 0.12330 -0.08378",
"0.00655 0.12045 -0.08425",
"0.00880 0.11575 -0.08070",
"0.01249 0.11460 -0.07943",
"0.01873 0.11623 -0.07877",
"0.02940 0.13056 -0.07968",
"0.04027 0.14321 -0.08143",
"0.04160 0.13865 -0.08485",
"0.04184 0.13579 -0.08384",
"0.04986 0.15149 -0.07973",
"0.05476 0.15905 -0.07380",
"0.05429 0.15176 -0.06814",
"0.05700 0.15230 -0.06230",
"0.05943 0.14827 -0.05510",
"0.06662 0.14427 -0.05068",
"0.08205 0.14240 -0.03938",
"0.09185 0.13818 -0.02858",
"0.08580 0.13545 -0.03220",
"0.08483 0.13599 -0.03247",
"0.08260 0.13306 -0.03135",
"0.07649 0.13104 -0.03657",
"0.08556 0.12944 -0.03287",
"0.11205 0.12335 -0.01275",
"0.11117 0.11654 -0.01064",
"0.10610 0.11053 -0.01181",
"0.10526 0.10299 -0.00820",
"0.10326 0.09661 -0.00575",
"0.10010 0.09105 -0.00495",
"0.09866 0.08405 -0.00163",
"0.09750 0.07705 0.00124",
"0.09081 0.07189 0.00243",
"0.09254 0.06643 0.00830",
"0.10870 0.06130 0.01725",
"0.10032 0.05605 0.01882",
"0.09041 0.05389 0.02091",
"0.08159 0.05098 0.02184",
"0.06968 0.04714 0.01827",
"0.06075 0.04485 0.01705",
"0.05031 0.03523 0.01919",
"0.04362 0.02914 0.01958",
"0.03378 0.02134 0.01788",
"0.02241 0.01204 0.01884",
"0.01365 0.00620 0.02080",
"-0.00383 -0.00503 0.01711",
"-0.02232 -0.01511 0.01423",
"-0.02473 -0.01628 0.01524",
"-0.01864 -0.01382 0.01657",
"-0.01840 -0.01400 0.01815",
"-0.02060 -0.01020 0.01651",
"-0.02178 -0.00833 0.01486",
"-0.02452 -0.01108 0.01536",
"-0.02829 -0.01411 0.01619",
"-0.03090 -0.01685 0.01625",
"-0.03308 -0.01861 0.01556",
"-0.03434 -0.02151 0.01683",
"-0.03580 -0.02490 0.01625",
"-0.03747 -0.02836 0.01488",
"-0.03715 -0.02745 0.01490",
"-0.03587 -0.02353 0.01190",
"-0.03555 -0.02255 0.01115",
"-0.03581 -0.02243 0.01029",
"-0.03626 -0.02208 0.00911",
"-0.03650 -0.02140 0.00955",
"-0.03702 -0.02116 0.00783",
"-0.03787 -0.02071 0.00647",
"-0.03890 -0.02018 0.00474",
"-0.03889 -0.02014 0.00372",
"-0.03825 -0.02045 0.00280",
"-0.03932 -0.02159 -0.00268",
"-0.03672 -0.01738 -0.00741",
"-0.04617 -0.03334 -0.01075",
"-0.06021 -0.04632 -0.01655",
"-0.06620 -0.03555 -0.02910",
"-0.09620 -0.06494 -0.05359",
"-0.09876 -0.07041 -0.07801",
"-0.07848 -0.05514 -0.08759",
"-0.06359 -0.04548 -0.09697",
"-0.05190 -0.04175 -0.11915",
"-0.02111 -0.04412 -0.12712",
"0.03897 -0.03481 -0.14168",
"0.10221 -0.01977 -0.14944",
"0.16669 -0.01042 -0.14815",
"0.25805 0.00670 -0.15560",
"0.37735 0.04861 -0.14890",
"0.50268 0.09644 -0.10409",
"0.65317 0.15307 -0.04000",
"0.79436 0.21222 0.03590",
"0.89165 0.25970 0.13510",
"1.02979 0.32347 0.25321",
"1.16002 0.39003 0.39971",
"1.24813 0.43963 0.52440",
"1.25695 0.44458 0.60671",
"1.16710 0.40385 0.67540",
"1.04617 0.37260 0.73735",
"0.92113 0.32758 0.78506",
"0.80739 0.25816 0.82324",
"0.66521 0.18238 0.84017",
"0.45465 0.10490 0.83215",
"0.23505 0.00811 0.83695",
"0.01754 -0.07321 0.81845",
"-0.14561 -0.10550 0.78070",
"-0.21882 -0.10432 0.71201",
"-0.23440 -0.10955 0.60275",
"-0.25484 -0.11523 0.51369",
"-0.27645 -0.12442 0.44954",
"-0.26392 -0.13078 0.39959",
"-0.22862 -0.13346 0.34641",
"-0.21665 -0.14085 0.28445",
"-0.22000 -0.14799 0.23611",
"-0.20965 -0.13877 0.18630",
"-0.19666 -0.12403 0.13721",
"-0.18456 -0.11120 0.09943",
"-0.16535 -0.09495 0.07285",
"-0.14819 -0.08001 0.05285",
"-0.13576 -0.07154 0.03922",
"-0.12933 -0.06860 0.03005",
"-0.12575 -0.06522 0.02361",
"-0.11875 -0.05930 0.02000",
"-0.11575 -0.05702 0.01624",
"-0.11282 -0.05158 0.00992",
"-0.10980 -0.04741 0.00323",
"-0.10666 -0.04521 -0.00053",
"-0.10390 -0.04225 -0.00385",
"-0.10102 -0.04154 -0.00602",
"-0.10232 -0.04111 -0.00766",
"-0.10293 -0.04162 -0.00772",
"-0.10244 -0.04221 -0.00918",
"-0.10305 -0.04215 -0.01140",
"-0.10406 -0.04161 -0.01258",
"-0.10491 -0.04259 -0.01320",
"-0.10249 -0.04009 -0.01465",
"-0.09973 -0.03759 -0.01579",
"-0.09995 -0.03780 -0.01670",
"-0.10091 -0.03728 -0.01794",
"-0.10162 -0.03710 -0.01990",
"-0.10176 -0.03742 -0.02187",
"-0.10077 -0.03797 -0.02178",
"-0.09865 -0.03765 -0.02110",
"-0.10035 -0.03738 -0.02189",
"-0.09872 -0.03517 -0.02330",
"-0.09735 -0.03271 -0.02436",
"-0.09809 -0.03365 -0.02441",
"-0.09945 -0.03365 -0.02565",
"-0.09945 -0.03365 -0.02565",
"-0.09728 -0.03357 -0.02559",
"-0.09486 -0.03359 -0.02583",
"-0.09554 -0.03377 -0.02662",
"-0.09695 -0.03375 -0.02780",
"-0.09747 -0.03377 -0.02778",
"-0.09465 -0.03013 -0.02618",
"-0.09358 -0.02663 -0.02676",
"-0.08991 -0.02899 -0.02700",
"-0.07895 -0.03085 -0.02370",
"-0.08013 -0.03084 -0.02459",
"-0.07965 -0.03105 -0.02379",
"-0.07768 -0.02845 -0.02377",
"-0.07825 -0.02630 -0.02510",
"-0.07825 -0.02630 -0.02510",
"-0.07981 -0.02622 -0.02610",
"-0.08080 -0.02616 -0.02655",
"-0.07976 -0.02614 -0.02617",
"-0.07897 -0.02611 -0.02547",
"-0.07845 -0.02635 -0.02375",
"-0.07873 -0.02263 -0.02467",
"-0.07851 -0.02157 -0.02528",
"-0.07758 -0.02064 -0.02486",
"-0.07719 -0.02032 -0.02431",
"-0.07695 -0.02100 -0.02475",
"-0.07885 -0.02065 -0.02530",
"-0.07792 -0.01807 -0.02566",
"-0.07775 -0.01535 -0.02624",
"-0.07898 -0.01597 -0.02636",
"-0.07620 -0.01620 -0.02545",
"-0.07620 -0.01620 -0.02545",
"-0.07625 -0.01618 -0.02539",
"-0.07610 -0.01624 -0.02557",
"-0.07510 -0.01531 -0.02556",
"-0.07170 -0.01135 -0.02480",
"-0.07190 -0.01047 -0.02380",
"-0.07195 -0.01025 -0.02355",
"-0.07195 -0.01025 -0.02355",
"-0.07179 -0.01005 -0.02335",
"-0.07115 -0.00925 -0.02255",
"-0.07115 -0.00925 -0.02255",
"-0.07108 -0.01018 -0.02232",
"-0.07053 -0.00753 -0.02279",
"-0.06960 -0.00495 -0.02315",
"-0.06960 -0.00495 -0.02315",
"-0.06744 -0.00443 -0.02191",
"-0.06695 -0.00417 -0.02340",
"-0.06870 -0.00379 -0.02265",
"-0.07038 -0.00291 -0.01957",
"-0.06990 -0.00230 -0.02080",
"-0.06972 -0.00195 -0.02251",
"-0.06835 0.00060 -0.02288",
"-0.06706 0.00293 -0.02430",
"-0.06689 0.00148 -0.02546",
"-0.06695 0.00165 -0.02535",
"-0.06753 0.00206 -0.02696",
"-0.06554 0.00192 -0.02835",
"-0.06364 0.00173 -0.02817",
"-0.06353 0.00184 -0.02837",
"-0.06160 0.00190 -0.02935",
"-0.05983 0.00144 -0.03221",
"-0.05767 0.00459 -0.03320",
"-0.05624 0.00792 -0.03287",
"-0.05415 0.01106 -0.03448",
"-0.04805 0.01595 -0.03525",
"-0.04534 0.01665 -0.03457",
"-0.04428 0.01332 -0.03291",
"-0.04284 0.01067 -0.03229",
"-0.03871 0.01417 -0.03260",
"-0.03175 0.02500 -0.03150",
"-0.02659 0.03323 -0.03144",
"-0.02265 0.03780 -0.03184",
"-0.01051 0.04028 -0.02985",
"0.00264 0.04095 -0.02909",
"0.00520 0.04440 -0.03270",
"0.00679 0.04517 -0.03485",
"0.00868 0.04115 -0.03548",
"0.00982 0.03784 -0.03581",
"0.01158 0.03872 -0.03629",
"0.01520 0.03890 -0.03785",
"0.01756 0.03694 -0.03946",
"0.02371 0.04823 -0.04558",
"0.03114 0.05811 -0.04811",
"0.03539 0.05860 -0.04914",
"0.03855 0.05745 -0.05390",
"0.04383 0.06405 -0.05752",
"0.05477 0.06286 -0.05605",
"0.05857 0.05613 -0.05767",
"0.06464 0.06126 -0.06330",
"0.08555 0.07545 -0.06340",
"0.08959 0.07247 -0.06273",
"0.08973 0.07024 -0.06934",
"0.10345 0.06880 -0.07067",
"0.12240 0.06357 -0.06866",
"0.13025 0.06480 -0.07605",
"0.13718 0.08497 -0.08297",
"0.13814 0.08842 -0.08333",
"0.13745 0.08230 -0.08252",
"0.13887 0.08464 -0.08453",
"0.13880 0.08310 -0.08485",
"0.13920 0.07922 -0.08473",
"0.13915 0.07731 -0.08519",
"0.14015 0.07834 -0.08639",
"0.14143 0.07582 -0.09257",
"0.14260 0.07195 -0.10320",
"0.14290 0.07202 -0.10576",
"0.14235 0.07185 -0.10714",
"0.14171 0.07160 -0.10972",
"0.14044 0.07131 -0.11023",
"0.13785 0.06825 -0.10840",
"0.13785 0.06825 -0.10840",
"0.13676 0.06568 -0.10800",
"0.13538 0.06321 -0.10658",
"0.13510 0.06412 -0.10544",
"0.13490 0.06420 -0.10520",
"0.13317 0.06154 -0.10398",
"0.13271 0.06018 -0.10347",
"0.13274 0.06195 -0.10245",
"0.13129 0.06016 -0.10127",
"0.12985 0.05680 -0.10055",
"0.13039 0.05685 -0.09768",
"0.12792 0.05850 -0.09778",
"0.13129 0.05462 -0.09536",
"0.13845 0.05026 -0.09122",
"0.13525 0.05110 -0.09130",
"0.13171 0.04817 -0.09089",
"0.12959 0.04604 -0.09131",
"0.12729 0.04786 -0.09201",
"0.12576 0.04712 -0.08998",
"0.12355 0.04435 -0.08760",
"0.11971 0.04439 -0.08848",
"0.11730 0.04559 -0.08726",
"0.11710 0.04369 -0.08419",
"0.11433 0.04111 -0.08303",
"0.11025 0.04075 -0.08115",
"0.10993 0.04131 -0.07955",
"0.10941 0.03965 -0.07594",
"0.10662 0.03716 -0.07467",
"0.10509 0.03818 -0.07392",
"0.10525 0.03910 -0.07040",
"0.10433 0.03922 -0.06856",
"0.10203 0.04017 -0.06638",
"0.09940 0.03745 -0.06400",
"0.09792 0.03546 -0.06062",
"0.09580 0.03650 -0.05650",
"0.09140 0.03630 -0.05658",
"0.08951 0.03642 -0.05487",
"0.08859 0.03747 -0.05206",
"0.08770 0.03800 -0.04922",
"0.08560 0.03815 -0.04645",
"0.07738 0.03466 -0.04720",
"0.07312 0.03304 -0.04777",
"0.07016 0.03304 -0.04715",
"0.06529 0.03333 -0.04727",
"0.06105 0.03285 -0.04815",
"0.05811 0.03306 -0.04700",
"0.05200 0.03064 -0.04673",
"0.04287 0.02836 -0.04774",
"0.04230 0.02903 -0.04588",
"0.05405 0.02740 -0.04000",
"0.05174 0.02836 -0.03819",
"0.04801 0.02912 -0.03679",
"0.04546 0.02960 -0.03526",
"0.04325 0.02980 -0.03343",
"0.04125 0.02700 -0.03115",
"0.03705 0.02672 -0.03147",
"0.03316 0.02610 -0.03139",
"0.03350 0.02641 -0.03020",
"0.03556 0.02707 -0.02820",
"0.03450 0.02690 -0.02715",
"0.03394 0.02666 -0.02635",
"0.03233 0.02405 -0.02459",
"0.03073 0.02149 -0.02269",
"0.03071 0.02235 -0.02171",
"0.03075 0.02255 -0.02115",
"0.03079 0.02275 -0.02059",
"0.03267 0.02312 -0.01791",
"0.03450 0.02324 -0.01593",
"0.03392 0.02207 -0.01692",
"0.03230 0.01870 -0.01655",
"0.02954 0.01890 -0.01603",
"0.02771 0.01916 -0.01623",
"0.02554 0.01942 -0.01674",
"0.02246 0.01994 -0.01922",
"0.01925 0.02100 -0.02525",
"0.01647 0.02072 -0.02841",
"0.01859 0.03356 -0.03354",
"0.01822 0.04433 -0.04057",
"0.01512 0.05022 -0.04775",
"0.01725 0.06605 -0.05480",
"0.01608 0.07207 -0.06125",
"0.01028 0.06998 -0.06880",
"0.00942 0.08158 -0.07689",
"0.01175 0.09859 -0.08298",
"0.00925 0.10035 -0.08650",
"0.01230 0.09989 -0.08666",
"0.01546 0.10338 -0.08793",
"0.01759 0.10512 -0.09153",
"0.01954 0.10612 -0.09625",
"0.02260 0.10905 -0.09845",
"0.02795 0.11015 -0.09594",
"0.03085 0.10647 -0.09054",
"0.03795 0.11469 -0.09050",
"0.04780 0.12570 -0.09095",
"0.05130 0.12100 -0.08565",
"0.05402 0.12017 -0.07963",
"0.05789 0.11702 -0.07404",
"0.05385 0.11605 -0.07041",
"0.05043 0.11568 -0.06636",
"0.05965 0.11115 -0.05855",
"0.06563 0.10976 -0.05368",
"0.06947 0.10521 -0.04917",
"0.08282 0.10120 -0.04214",
"0.09683 0.09901 -0.03488",
"0.09890 0.09520 -0.02970",
"0.10710 0.09499 -0.01935",
"0.11278 0.09241 -0.01726",
"0.11487 0.09118 -0.01810",
"0.12244 0.09052 -0.01413",
"0.13340 0.08620 -0.00885",
"0.13248 0.08654 -0.00900",
"0.12403 0.07907 -0.01291",
"0.12731 0.06754 -0.00557",
"0.13683 0.05646 0.00807",
"0.13095 0.04535 0.00885",
"0.12535 0.03797 0.01203",
"0.12545 0.02786 0.02075",
"0.11730 0.01837 0.02601",
"0.11065 0.01566 0.02779",
"0.11815 0.01940 0.02970",
"0.10386 0.02166 0.02539",
"0.08568 0.02631 0.02322",
"0.08531 0.02645 0.02498",
"0.08745 0.02479 0.02384",
"0.06960 0.02720 0.01560",
"0.05373 0.03007 0.00943",
"0.04422 0.02234 0.00792",
"0.03507 0.01001 0.00770",
"0.02587 0.00196 0.00635",
"0.01760 -0.00415 0.00605",
"0.00852 -0.01451 0.00541",
"-0.00097 -0.02426 0.00479",
"-0.00875 -0.03305 0.00663",
"-0.01346 -0.03804 0.00781",
"-0.01790 -0.04100 0.00745",
"-0.02260 -0.04445 0.00919",
"-0.02341 -0.04240 0.00957",
"-0.02847 -0.05075 0.01122",
"-0.03462 -0.06223 0.01247",
"-0.03230 -0.05820 0.01040",
"-0.03317 -0.05827 0.00917",
"-0.03221 -0.05969 0.01001",
"-0.03088 -0.05680 0.00936",
"-0.02982 -0.05459 0.00855",
"-0.03000 -0.05460 0.00820",
"-0.02844 -0.05452 0.00968",
"-0.02670 -0.05165 0.01003",
"-0.02650 -0.04980 0.00882",
"-0.02555 -0.05101 0.00834",
"-0.02395 -0.05045 0.00730",
"-0.02215 -0.04677 0.00602",
"-0.02129 -0.04481 0.00431",
"-0.02089 -0.04682 0.00397",
"-0.02127 -0.04504 0.00296",
"-0.02315 -0.04160 0.00000",
"-0.02240 -0.04167 -0.00085",
"-0.02429 -0.04153 -0.00648",
"-0.03336 -0.03725 -0.02204",
"-0.04948 -0.03466 -0.04408",
"-0.06605 -0.03650 -0.06875",
"-0.08066 -0.03656 -0.09490",
"-0.07931 -0.03661 -0.09983",
"-0.05539 -0.03942 -0.09770",
"-0.02120 -0.04386 -0.10388",
"0.01025 -0.04930 -0.11540",
"0.05240 -0.05760 -0.13309",
"0.11837 -0.04841 -0.13059",
"0.17573 -0.04186 -0.13686",
"0.25303 -0.02103 -0.15034",
"0.39215 0.03955 -0.12860",
"0.52364 0.08507 -0.07764",
"0.64961 0.14311 -0.02909",
"0.77309 0.20637 0.05093",
"0.89640 0.26253 0.16330",
"1.01950 0.32005 0.28265",
"1.12542 0.37852 0.43344",
"1.21376 0.41927 0.55968",
"1.17849 0.38544 0.64455",
"1.04389 0.31026 0.71498",
"0.93125 0.27055 0.78560",
"0.80321 0.20827 0.83049",
"0.67439 0.11443 0.85675",
"0.52734 0.03058 0.89345",
"0.33392 -0.04169 0.91566",
"0.10705 -0.12610 0.88810",
"-0.08158 -0.18820 0.86895",
"-0.20819 -0.21164 0.82880",
"-0.26941 -0.20355 0.73242",
"-0.27702 -0.18546 0.61558",
"-0.26085 -0.17695 0.53320",
"-0.25310 -0.18027 0.46117",
"-0.23328 -0.18082 0.38935",
"-0.20625 -0.17907 0.32848",
"-0.18997 -0.17871 0.27807",
"-0.18775 -0.17710 0.22685",
"-0.18348 -0.15934 0.17839",
"-0.16984 -0.14641 0.13317",
"-0.14940 -0.12902 0.09619",
"-0.12574 -0.09686 0.06588",
"-0.10495 -0.06890 0.04205",
"-0.10088 -0.06241 0.03222",
"-0.09883 -0.05498 0.02629",
"-0.09791 -0.05712 0.02305",
"-0.10436 -0.07585 0.02196",
"-0.10985 -0.09220 0.01995",
"-0.10614 -0.08677 0.01386",
"-0.10515 -0.08251 0.00881",
"-0.10169 -0.07716 0.00551",
"-0.09758 -0.07076 0.00302",
"-0.09825 -0.06755 0.00185",
"-0.09599 -0.06128 -0.00138",
"-0.09570 -0.05600 -0.00351",
"-0.09430 -0.05517 -0.00361",
"-0.09271 -0.05487 -0.00444",
"-0.09475 -0.05435 -0.00660",
"-0.09475 -0.05435 -0.00660",
"-0.09444 -0.05396 -0.00622",
"-0.09373 -0.05353 -0.00684",
"-0.09381 -0.05317 -0.00784",
"-0.09585 -0.05265 -0.01000",
"-0.09547 -0.05272 -0.00989",
"-0.09639 -0.05205 -0.01033",
"-0.09085 -0.05257 -0.00890",
"-0.08496 -0.05370 -0.00777",
"-0.08720 -0.05280 -0.01095",
"-0.08742 -0.05301 -0.01186",
"-0.08464 -0.05342 -0.01087",
"-0.08447 -0.05311 -0.01177",
"-0.08636 -0.05266 -0.01391",
"-0.08560 -0.05250 -0.01495",
"-0.08348 -0.05218 -0.01427",
"-0.08163 -0.05239 -0.01340",
"-0.08103 -0.05236 -0.01418",
"-0.08150 -0.05223 -0.01594",
"-0.08070 -0.05255 -0.01690",
"-0.07817 -0.05193 -0.01684",
"-0.07816 -0.05160 -0.01723",
"-0.07658 -0.05201 -0.01567",
"-0.07505 -0.05240 -0.01405",
"-0.07505 -0.05240 -0.01405",
"-0.07161 -0.04904 -0.01349",
"-0.07008 -0.04813 -0.01261",
"-0.07056 -0.04684 -0.01530",
"-0.07043 -0.04377 -0.01989",
"-0.07260 -0.04220 -0.02265",
"-0.07232 -0.03932 -0.02205",
"-0.07301 -0.03846 -0.02212",
"-0.07467 -0.03671 -0.02249",
"-0.07503 -0.03425 -0.02226",
"-0.07400 -0.03335 -0.02325",
"-0.07404 -0.03031 -0.02461",
"-0.07375 -0.02984 -0.02359",
"-0.06775 -0.02871 -0.02049",
"-0.06306 -0.02655 -0.02000",
"-0.06750 -0.02665 -0.02190",
"-0.06698 -0.02689 -0.02018",
"-0.06747 -0.02661 -0.01916",
"-0.07026 -0.02668 -0.02099",
"-0.07195 -0.02714 -0.02123",
"-0.07295 -0.02710 -0.01995",
"-0.07295 -0.02710 -0.01995",
"-0.07198 -0.02655 -0.01806",
"-0.07103 -0.02659 -0.01606",
"-0.07238 -0.02698 -0.01691",
"-0.07390 -0.02670 -0.01735",
"-0.07318 -0.02702 -0.01587",
"-0.07087 -0.02684 -0.01403",
"-0.07055 -0.02616 -0.01441",
"-0.07182 -0.02626 -0.01437",
"-0.07130 -0.02650 -0.01265",
"-0.07262 -0.02630 -0.01333",
"-0.07171 -0.02579 -0.01268",
"-0.06949 -0.02546 -0.01251",
"-0.07141 -0.02526 -0.01462",
"-0.07635 -0.02435 -0.01605",
"-0.07790 -0.02045 -0.01771",
"-0.08245 -0.01916 -0.01852",
"-0.08550 -0.01643 -0.01931",
"-0.08239 -0.01365 -0.02001",
"-0.07735 -0.01460 -0.01870",
"-0.07283 -0.01240 -0.01874",
"-0.06933 -0.01148 -0.01953",
"-0.06325 -0.01367 -0.01829",
"-0.06035 -0.01175 -0.01724",
"-0.06595 -0.00705 -0.01970",
"-0.07089 -0.00614 -0.02113",
"-0.07382 -0.00269 -0.02248",
"-0.07834 -0.00050 -0.02459",
"-0.08073 0.00061 -0.02572",
"-0.07505 0.00415 -0.02430",
"-0.07322 0.00501 -0.02706",
"-0.07350 0.00237 -0.02932",
"-0.06882 0.00842 -0.02886",
"-0.06144 0.01872 -0.03066",
"-0.05615 0.02530 -0.03520",
"-0.05100 0.03469 -0.03863",
"-0.04944 0.04407 -0.04040",
"-0.05106 0.04876 -0.04114",
"-0.05265 0.04790 -0.04150",
"-0.05075 0.04755 -0.04095",
"-0.04889 0.04700 -0.04096",
"-0.04743 0.04743 -0.03992",
"-0.04421 0.04718 -0.04016",
"-0.03788 0.04606 -0.04245",
"-0.03290 0.04530 -0.04360",
"-0.03111 0.04103 -0.04453",
"-0.02633 0.03748 -0.04461",
"-0.02272 0.02843 -0.04427",
"-0.01320 0.03416 -0.04521",
"0.00690 0.06660 -0.04845",
"0.01340 0.06340 -0.05017",
"0.01812 0.05622 -0.04960",
"0.02889 0.06159 -0.04741",
"0.03768 0.06673 -0.05121",
"0.03730 0.06200 -0.06085",
"0.03505 0.05553 -0.06316",
"0.04185 0.07393 -0.06603",
"0.04498 0.08420 -0.07126",
"0.04591 0.07743 -0.07381",
"0.05585 0.07760 -0.07205",
"0.06438 0.07293 -0.07146",
"0.07282 0.07164 -0.07040",
"0.08293 0.06917 -0.06914",
"0.09204 0.06225 -0.07112",
"0.10075 0.06200 -0.07580",
"0.10809 0.07223 -0.07956",
"0.11500 0.07937 -0.08017",
"0.11887 0.07740 -0.08102",
"0.12173 0.08166 -0.08432",
"0.12605 0.09905 -0.08850",
"0.12592 0.09603 -0.08938",
"0.12478 0.09326 -0.08986",
"0.12722 0.09430 -0.09110",
"0.13051 0.09102 -0.09407",
"0.13025 0.08680 -0.09615",
"0.13025 0.08697 -0.09603",
"0.12933 0.08628 -0.09647",
"0.12880 0.08599 -0.09653",
"0.12840 0.08549 -0.09539",
"0.12715 0.08200 -0.09505",
"0.12723 0.08160 -0.09469",
"0.12647 0.08254 -0.09347",
"0.12181 0.07996 -0.09515",
"0.11847 0.07780 -0.09949",
"0.11735 0.07825 -0.10240",
"0.11766 0.07804 -0.10058",
"0.11762 0.07933 -0.09829",
"0.11517 0.07740 -0.09731",
"0.11268 0.07514 -0.09726",
"0.11290 0.07535 -0.09635",
"0.11270 0.07543 -0.09611",
"0.11281 0.07698 -0.09426",
"0.11183 0.07473 -0.09085",
"0.10991 0.07187 -0.09070",
"0.10840 0.07220 -0.09100",
"0.10494 0.06967 -0.08947",
"0.10226 0.06856 -0.08879",
"0.09971 0.07076 -0.08811",
"0.09770 0.06949 -0.08580",
"0.09510 0.06645 -0.08300",
"0.09300 0.06642 -0.08253",
"0.08988 0.06422 -0.08189",
"0.08770 0.06246 -0.08056",
"0.08823 0.06435 -0.08035",
"0.08785 0.06570 -0.08250",
"0.08397 0.06147 -0.08081",
"0.08301 0.06000 -0.07854",
"0.08090 0.05906 -0.07776",
"0.07815 0.05630 -0.07702",
"0.07775 0.05725 -0.07540",
"0.07392 0.05734 -0.07614",
"0.07040 0.05460 -0.07621",
"0.07119 0.05204 -0.07274",
"0.07005 0.05290 -0.07133",
"0.06340 0.05345 -0.07255",
"0.05949 0.05061 -0.07034",
"0.05635 0.05000 -0.06782",
"0.05236 0.05356 -0.07249",
"0.04646 0.05350 -0.07788",
"0.04040 0.05070 -0.07570",
"0.03876 0.05116 -0.07352",
"0.03102 0.05329 -0.07408",
"0.03234 0.05371 -0.07208",
"0.03315 0.05212 -0.06957",
"0.01540 0.05070 -0.07275",
"0.01216 0.05184 -0.07137",
"0.01296 0.05233 -0.06941",
"0.01036 0.05248 -0.06947",
"0.00741 0.05155 -0.06863",
"0.00545 0.04815 -0.06655",
"0.00505 0.04911 -0.06531",
"0.00441 0.05058 -0.06432",
"0.00479 0.04707 -0.06187",
"0.00051 0.04506 -0.06139",
"-0.01255 0.04735 -0.06500",
"-0.01231 0.04717 -0.06342",
"-0.01127 0.04814 -0.06127",
"-0.01409 0.04608 -0.06037",
"-0.01683 0.04314 -0.06011",
"-0.01735 0.04310 -0.05875",
"-0.01791 0.04286 -0.05795",
"-0.01978 0.04250 -0.05806",
"-0.02040 0.04262 -0.05872",
"-0.01994 0.04300 -0.05876",
"-0.01990 0.04320 -0.05820",
"-0.02024 0.04347 -0.05775",
"-0.01993 0.04272 -0.05667",
"-0.02651 0.04298 -0.05827",
"-0.03450 0.04451 -0.06137",
"-0.03530 0.04445 -0.06215",
"-0.03474 0.04469 -0.06295",
"-0.03314 0.04505 -0.06307",
"-0.03083 0.04556 -0.06073",
"-0.03167 0.04639 -0.06302",
"-0.03445 0.04740 -0.07275",
"-0.03260 0.04779 -0.07307",
"-0.03307 0.04784 -0.07085",
"-0.03964 0.04983 -0.07791",
"-0.04514 0.05168 -0.08515",
"-0.04355 0.05315 -0.08350",
"-0.03957 0.06684 -0.08655",
"-0.03797 0.07458 -0.08830",
"-0.03725 0.07781 -0.09205",
"-0.03750 0.08197 -0.09899",
"-0.04020 0.08740 -0.10530",
"-0.04126 0.09285 -0.11275",
"-0.03840 0.09702 -0.11447",
"-0.03975 0.09607 -0.12475",
"-0.03871 0.10137 -0.13923",
"-0.02735 0.12245 -0.13900",
"-0.01895 0.13016 -0.13723",
"-0.01269 0.12948 -0.13411",
"-0.00236 0.13974 -0.13357",
"0.00782 0.14960 -0.13309",
"0.01130 0.14350 -0.12885",
"0.01640 0.14319 -0.12362",
"0.01931 0.14008 -0.11728",
"0.02283 0.13733 -0.11134",
"0.02811 0.13544 -0.10615",
"0.03145 0.13115 -0.10110",
"0.03649 0.13075 -0.09402",
"0.04096 0.12774 -0.08599",
"0.04266 0.12429 -0.07885",
"0.04699 0.12425 -0.07747",
"0.05495 0.12270 -0.07990",
"0.05867 0.11939 -0.07713",
"0.06552 0.11929 -0.07190",
"0.06819 0.11867 -0.06972",
"0.07256 0.11551 -0.06825",
"0.08465 0.11275 -0.06560",
"0.08312 0.10882 -0.06234",
"0.08147 0.10803 -0.06026",
"0.07986 0.10616 -0.05837",
"0.07857 0.10218 -0.05466",
"0.07845 0.10285 -0.05175",
"0.07511 0.10406 -0.05025",
"0.07218 0.09656 -0.04739",
"0.06539 0.08625 -0.04349",
"0.05651 0.08091 -0.04085",
"0.04995 0.07495 -0.03705",
"0.04190 0.06817 -0.03295",
"0.03533 0.06186 -0.02951",
"0.02806 0.05563 -0.02615",
"0.01956 0.04828 -0.02560",
"0.01075 0.03930 -0.03035",
"-0.00089 0.03432 -0.03525",
"-0.01893 0.03100 -0.04245",
"-0.03853 0.02414 -0.05014",
"-0.05346 0.01642 -0.05424",
"-0.06330 0.00995 -0.05440",
"-0.07161 0.00309 -0.05294",
"-0.07906 -0.00568 -0.05049",
"-0.08529 -0.01454 -0.04805",
"-0.09009 -0.01962 -0.04718",
"-0.09305 -0.02270 -0.04690",
"-0.09336 -0.02356 -0.04678",
"-0.09391 -0.01985 -0.04683",
"-0.09509 -0.01663 -0.04848",
"-0.09554 -0.01759 -0.04939",
"-0.09630 -0.01775 -0.04835",
"-0.09782 -0.01747 -0.04879",
"-0.09997 -0.01713 -0.04908",
"-0.10164 -0.01690 -0.04938",
"-0.10090 -0.01705 -0.04950",
"-0.10090 -0.01705 -0.04950",
"-0.10268 -0.01684 -0.04987",
"-0.10581 -0.01737 -0.05106",
"-0.10680 -0.01460 -0.05189",
"-0.10500 -0.01208 -0.05278",
"-0.10570 -0.01185 -0.05485",
"-0.10806 -0.01149 -0.05509",
"-0.10835 -0.01135 -0.05539",
"-0.10863 -0.01164 -0.05511",
"-0.10909 -0.01175 -0.05431",
"-0.10910 -0.01180 -0.05445",
"-0.11089 -0.01090 -0.05550",
"-0.11304 -0.00932 -0.05918",
"-0.11298 -0.00867 -0.06316",
"-0.11543 -0.00948 -0.07186",
"-0.13390 -0.02285 -0.09375",
"-0.16878 -0.05814 -0.12312",
"-0.17220 -0.06078 -0.14341",
"-0.15697 -0.05054 -0.15103",
"-0.13853 -0.04916 -0.15521",
"-0.11260 -0.04740 -0.16545",
"-0.08980 -0.05655 -0.17832",
"-0.03678 -0.04772 -0.19323",
"0.02194 -0.03548 -0.19544",
"0.08411 -0.01551 -0.20091",
"0.18055 0.02750 -0.21810",
"0.29064 0.06136 -0.19945",
"0.42622 0.11886 -0.15664",
"0.57483 0.19142 -0.09615",
"0.70095 0.24807 -0.01387",
"0.80350 0.29420 0.09080",
"0.93108 0.37108 0.21857",
"1.04016 0.42454 0.35674",
"1.08746 0.41213 0.48964",
"1.05146 0.37472 0.58933",
"0.94220 0.35205 0.64720",
"0.81233 0.30366 0.70324",
"0.68493 0.23946 0.74908",
"0.55584 0.14684 0.78558",
"0.39646 0.04896 0.81859",
"0.18970 -0.02520 0.83755",
"-0.02311 -0.11924 0.82628",
"-0.21306 -0.17348 0.79344",
"-0.34191 -0.19860 0.74108",
"-0.39528 -0.20354 0.65066",
"-0.39690 -0.17985 0.52655",
"-0.38073 -0.16084 0.42926",
"-0.35449 -0.15969 0.36966",
"-0.32923 -0.17167 0.31521",
"-0.30331 -0.17740 0.25258",
"-0.27475 -0.16240 0.19775",
"-0.26077 -0.14413 0.15346",
"-0.24635 -0.12332 0.10524",
"-0.23858 -0.10238 0.05168",
"-0.23591 -0.08258 0.00317",
"-0.22370 -0.06525 -0.02895",
"-0.20936 -0.04741 -0.04890",
"-0.20083 -0.04187 -0.05660",
"-0.19771 -0.04278 -0.06196",
"-0.19274 -0.04433 -0.06784",
"-0.18870 -0.04515 -0.07250",
"-0.19865 -0.04492 -0.07998",
"-0.19703 -0.04348 -0.08234",
"-0.19096 -0.04227 -0.08308",
"-0.19135 -0.04347 -0.08456",
"-0.19115 -0.04355 -0.08480",
"-0.19063 -0.04351 -0.08616",
"-0.19023 -0.04091 -0.08714",
"-0.18667 -0.03836 -0.08709",
"-0.18311 -0.03960 -0.08699",
"-0.18315 -0.03980 -0.08755",
"-0.18264 -0.03954 -0.08829",
"-0.18266 -0.04020 -0.08836",
"-0.18120 -0.03820 -0.08999",
"-0.17965 -0.03612 -0.09176",
"-0.17945 -0.03620 -0.09200",
"-0.17577 -0.03596 -0.09032",
"-0.17466 -0.03704 -0.09027",
"-0.17399 -0.03460 -0.09134",
"-0.17266 -0.03219 -0.09150",
"-0.17280 -0.03280 -0.09205",
"-0.17264 -0.03308 -0.09285",
"-0.16931 -0.03379 -0.09236",
"-0.16604 -0.03057 -0.09188",
"-0.16844 -0.03623 -0.09178",
"-0.17300 -0.05095 -0.09110",
"-0.17207 -0.04837 -0.09146",
"-0.17158 -0.04659 -0.09213",
"-0.17057 -0.04505 -0.09108",
"-0.16874 -0.04166 -0.09027",
"-0.16825 -0.04200 -0.09015",
"-0.16831 -0.04101 -0.09062",
"-0.16692 -0.03827 -0.09096",
"-0.16637 -0.03562 -0.09143",
"-0.16630 -0.03655 -0.09120",
"-0.16630 -0.03655 -0.09120",
"-0.16662 -0.03303 -0.09268",
"-0.16677 -0.03122 -0.09328",
"-0.16663 -0.03308 -0.09282",
"-0.16639 -0.03129 -0.09317",
"-0.16515 -0.02785 -0.09365",
"-0.16369 -0.02764 -0.09570",
"-0.16484 -0.02822 -0.09638",
"-0.16276 -0.02510 -0.09525",
"-0.15874 -0.02185 -0.09609",
"-0.15800 -0.02130 -0.09780",
"-0.15744 -0.02106 -0.09860",
"-0.15664 -0.02154 -0.09895",
"-0.15620 -0.01880 -0.09880",
"-0.15570 -0.01645 -0.09870",
"-0.15570 -0.01645 -0.09870",
"-0.15626 -0.01669 -0.09790",
"-0.15613 -0.01673 -0.09697",
"-0.15696 -0.01625 -0.09728",
"-0.15846 -0.01528 -0.09758",
"-0.15740 -0.01215 -0.09715",
"-0.15792 -0.01191 -0.09887",
"-0.15838 -0.01205 -0.09839",
"-0.15895 -0.01157 -0.09704",
"-0.15869 -0.01019 -0.09717",
"-0.15745 -0.00675 -0.09765",
"-0.15801 -0.00699 -0.09685",
"-0.15816 -0.00710 -0.09679",
"-0.15803 -0.00714 -0.09586",
"-0.15932 -0.00709 -0.09486",
"-0.16070 -0.00675 -0.09550",
"-0.16098 -0.00303 -0.09642",
"-0.16300 -0.00205 -0.09663",
"-0.16353 -0.00022 -0.09607",
"-0.16205 0.00250 -0.09610",
"-0.16205 0.00250 -0.09610",
"-0.16137 0.00570 -0.09578",
"-0.16121 0.00781 -0.09529",
"-0.16135 0.00665 -0.09501",
"-0.16129 0.00808 -0.09527",
"-0.16045 0.01100 -0.09575",
"-0.15949 0.01078 -0.09577",
"-0.16386 0.01442 -0.09814",
"-0.16630 0.01628 -0.09903",
"-0.16411 0.01637 -0.09837",
"-0.16305 0.01980 -0.09920",
"-0.16305 0.01980 -0.09920",
"-0.16236 0.01867 -0.09855",
"-0.15965 0.02291 -0.09981",
"-0.15662 0.03002 -0.10159",
"-0.15315 0.03305 -0.10060",
"-0.14900 0.03659 -0.10102",
"-0.14498 0.03885 -0.10289",
"-0.14206 0.04167 -0.10316",
"-0.13845 0.04595 -0.10221",
"-0.13420 0.04945 -0.10275",
"-0.13296 0.05289 -0.10323",
"-0.13053 0.05327 -0.10278",
"-0.12521 0.05272 -0.10265",
"-0.12356 0.05251 -0.10406",
"-0.12345 0.05225 -0.10480",
"-0.11942 0.05155 -0.10430",
"-0.11452 0.05240 -0.10490",
"-0.11484 0.04802 -0.10567",
"-0.11318 0.04970 -0.10641",
"-0.09985 0.07205 -0.10860",
"-0.09307 0.07577 -0.10955",
"-0.08997 0.07520 -0.11139",
"-0.08690 0.07475 -0.11289",
"-0.08395 0.07572 -0.11361",
"-0.07965 0.07965 -0.11410",
"-0.07298 0.07860 -0.11244",
"-0.06629 0.07778 -0.11016",
"-0.05964 0.08033 -0.11077",
"-0.05265 0.08189 -0.11458",
"-0.04530 0.08115 -0.11740",
"-0.03816 0.08090 -0.11772",
"-0.03369 0.07930 -0.11510",
"-0.02698 0.08079 -0.11614",
"-0.01974 0.08308 -0.12103",
"-0.01505 0.08335 -0.12185",
"-0.01075 0.08511 -0.12406",
"-0.00917 0.08402 -0.12890",
"-0.00491 0.08517 -0.13173",
"0.00200 0.08794 -0.13294",
"0.00450 0.08450 -0.13495",
"0.00408 0.08147 -0.13798",
"0.01537 0.09355 -0.14162",
"0.02524 0.10241 -0.14349",
"0.02818 0.10080 -0.14330",
"0.03130 0.10060 -0.14410",
"0.03341 0.10057 -0.14273",
"0.03987 0.09790 -0.14609",
"0.04432 0.09698 -0.14651",
"0.04465 0.09856 -0.14258",
"0.04680 0.09900 -0.14155",
"0.04659 0.09903 -0.14145",
"0.04846 0.09952 -0.13904",
"0.04907 0.10154 -0.14205",
"0.04542 0.10039 -0.14786",
"0.04415 0.10045 -0.14640",
"0.04946 0.11527 -0.14788",
"0.04943 0.11519 -0.14672",
"0.04414 0.10766 -0.14627",
"0.04233 0.10452 -0.14633",
"0.04265 0.10100 -0.14485",
"0.04029 0.09404 -0.14169",
"0.03679 0.08942 -0.14119",
"0.03340 0.08498 -0.14080",
"0.03310 0.08364 -0.13953",
"0.03425 0.08810 -0.13965",
"0.03145 0.08842 -0.13997",
"0.02996 0.08864 -0.14019",
"0.03126 0.08895 -0.13762",
"0.03035 0.08849 -0.13699",
"0.02800 0.08810 -0.13785",
"0.02788 0.08858 -0.13649",
"0.02789 0.08911 -0.13535",
"0.02722 0.08891 -0.13481",
"0.02684 0.08864 -0.13388",
"0.02740 0.08860 -0.13160",
"0.02628 0.08960 -0.12876",
"0.02331 0.08962 -0.12771",
"0.02233 0.08961 -0.12594",
"0.02245 0.09026 -0.12353",
"0.02215 0.09045 -0.12260",
"0.02168 0.09052 -0.12095",
"0.01690 0.08987 -0.12015",
"0.01399 0.08948 -0.11885",
"0.01267 0.08907 -0.11873",
"0.00960 0.08845 -0.11875",
"0.00433 0.08921 -0.11831",
"-0.00017 0.08403 -0.11665",
"-0.00582 0.07461 -0.11350",
"-0.01130 0.06923 -0.11086",
"-0.01420 0.06585 -0.10910",
"-0.01736 0.05921 -0.10598",
"-0.01993 0.05151 -0.10156",
"-0.02391 0.04719 -0.09861",
"-0.02701 0.04418 -0.09673",
"-0.02750 0.04105 -0.09415",
"-0.02822 0.04109 -0.09255",
"-0.02890 0.04256 -0.09080",
"-0.03180 0.04076 -0.08738",
"-0.03390 0.03774 -0.08494",
"-0.03500 0.03785 -0.08345",
"-0.04795 0.04134 -0.08522",
"-0.05385 0.03965 -0.08531",
"-0.05436 0.03675 -0.08172",
"-0.05499 0.03848 -0.07824",
"-0.05595 0.03920 -0.07620",
"-0.05711 0.04000 -0.07392",
"-0.06008 0.03739 -0.07346",
"-0.06445 0.03388 -0.07288",
"-0.06818 0.03128 -0.07050",
"-0.07090 0.02880 -0.06970",
"-0.07350 0.02460 -0.06842",
"-0.07584 0.02141 -0.06613",
"-0.07797 0.01901 -0.06553",
"-0.08227 0.01192 -0.06462",
"-0.08825 -0.00095 -0.06055",
"-0.09030 0.00192 -0.06024",
"-0.09257 0.00364 -0.06127",
"-0.09463 0.00288 -0.06037",
"-0.09516 0.00300 -0.05935",
"-0.09580 0.00220 -0.06015",
"-0.09708 0.00308 -0.06007",
"-0.09822 0.00598 -0.06107",
"-0.09930 0.00891 -0.06174",
"-0.09892 0.00905 -0.06038",
"-0.09700 0.01025 -0.05870",
"-0.09724 0.01093 -0.05826",
"-0.09787 0.01129 -0.05793",
"-0.09656 0.01325 -0.05748",
"-0.09057 0.01573 -0.05653",
"-0.08395 0.01720 -0.05500",
"-0.09615 0.02248 -0.05988",
"-0.10129 0.02720 -0.06310",
"-0.09800 0.03079 -0.06318",
"-0.09554 0.03293 -0.06341",
"-0.09375 0.03655 -0.06445",
"-0.08901 0.05490 -0.06709",
"-0.08538 0.06316 -0.07033",
"-0.08501 0.06372 -0.07474",
"-0.08039 0.06806 -0.07814",
"-0.07625 0.07055 -0.08255",
"-0.09888 0.07307 -0.10200",
"-0.09735 0.09025 -0.11157",
"-0.08760 0.09807 -0.11129",
"-0.09259 0.09241 -0.11817",
"-0.09430 0.09460 -0.13010",
"-0.08698 0.10304 -0.13063",
"-0.07780 0.11380 -0.13071",
"-0.07195 0.11929 -0.13085",
"-0.06228 0.13113 -0.13010",
"-0.04610 0.15350 -0.13095",
"-0.04485 0.15143 -0.12596",
"-0.04211 0.14440 -0.11969",
"-0.03602 0.14313 -0.11306",
"-0.03206 0.14156 -0.10570",
"-0.02880 0.13615 -0.09925",
"-0.02414 0.13542 -0.09364",
"-0.01903 0.13262 -0.08633",
"-0.01394 0.12942 -0.07938",
"-0.01010 0.12770 -0.07363",
"-0.00435 0.12300 -0.06725",
"0.00842 0.11793 -0.06618",
"0.01622 0.11697 -0.06251",
"0.01995 0.11490 -0.05709",
"0.02447 0.11172 -0.05336",
"0.02835 0.11080 -0.04960",
"0.02863 0.10708 -0.04868",
"0.02912 0.10599 -0.04781",
"0.02672 0.09948 -0.04519",
"0.02273 0.08548 -0.04330",
"0.02140 0.07570 -0.04330",
"0.01624 0.06970 -0.03950",
"0.01088 0.06441 -0.03758",
"0.00674 0.05971 -0.03458",
"0.00157 0.05458 -0.02964",
"-0.00465 0.04880 -0.02500",
"-0.01275 0.04403 -0.01847",
"-0.01883 0.04100 -0.01376",
"-0.02252 0.03681 -0.00933",
"-0.02714 0.03126 -0.00434",
"-0.03665 0.02735 -0.00500",
"-0.04513 0.02127 -0.00964",
"-0.05279 0.01760 -0.01387",
"-0.05755 0.01362 -0.01712",
"-0.06961 0.00763 -0.02525",
"-0.08975 0.00390 -0.03700",
"-0.09467 -0.00163 -0.03709",
"-0.10334 -0.00765 -0.03329",
"-0.11182 -0.01416 -0.03113",
"-0.11897 -0.02011 -0.02946",
"-0.13085 -0.02345 -0.02610",
"-0.13628 -0.02685 -0.02492",
"-0.14085 -0.02973 -0.02517",
"-0.14267 -0.03218 -0.02412",
"-0.14274 -0.03483 -0.02341",
"-0.14490 -0.03535 -0.02465",
"-0.14458 -0.03887 -0.02317",
"-0.14743 -0.04270 -0.02221",
"-0.15034 -0.04683 -0.02209",
"-0.14862 -0.04955 -0.02137",
"-0.14665 -0.04890 -0.01975",
"-0.14661 -0.05194 -0.01839",
"-0.14674 -0.05276 -0.01785",
"-0.14594 -0.05265 -0.01834",
"-0.14324 -0.05289 -0.01828",
"-0.14210 -0.05310 -0.01795",
"-0.14278 -0.05630 -0.01827",
"-0.14213 -0.05741 -0.01824",
"-0.14003 -0.05717 -0.01788",
"-0.13769 -0.05691 -0.01784",
"-0.13825 -0.05685 -0.01830",
"-0.15193 -0.05403 -0.02352",
"-0.15472 -0.05625 -0.02377",
"-0.14931 -0.05958 -0.02413",
"-0.14950 -0.05862 -0.02876",
"-0.15530 -0.06050 -0.03390",
"-0.15363 -0.06531 -0.04561",
"-0.16359 -0.06067 -0.07117",
"-0.18768 -0.07932 -0.10271",
"-0.19534 -0.10125 -0.11727",
"-0.17625 -0.08420 -0.11310",
"-0.17278 -0.07144 -0.13282",
"-0.13821 -0.05892 -0.13704",
"-0.08758 -0.05701 -0.14953",
"-0.03200 -0.05426 -0.16702",
"0.04110 -0.03875 -0.15610",
"0.11043 -0.03139 -0.15491",
"0.21912 0.00077 -0.15231",
"0.33572 0.04727 -0.13112",
"0.46132 0.09855 -0.08257",
"0.60385 0.15575 -0.01145",
"0.67756 0.19003 0.06970",
"0.78790 0.24027 0.18273",
"0.91569 0.30269 0.33153",
"1.00335 0.35057 0.47389",
"1.03730 0.36860 0.57770",
"0.99329 0.34726 0.67665",
"0.86000 0.28939 0.74583",
"0.71500 0.22848 0.79812",
"0.60572 0.16985 0.83965",
"0.47955 0.09160 0.85605",
"0.26962 -0.00468 0.86132",
"0.04822 -0.09311 0.86146",
"-0.15961 -0.18199 0.85220",
"-0.33071 -0.24415 0.80502",
"-0.42165 -0.24255 0.70795",
"-0.42857 -0.22994 0.61945",
"-0.40758 -0.21038 0.52925",
"-0.39256 -0.19700 0.44825",
"-0.37325 -0.19795 0.38897",
"-0.33825 -0.20150 0.33345",
"-0.31787 -0.19156 0.26608",
"-0.30477 -0.17930 0.21884",
"-0.29256 -0.16965 0.17628",
"-0.28858 -0.15952 0.11906",
"-0.28775 -0.14780 0.06820",
"-0.26820 -0.13302 0.04297",
"-0.24961 -0.11447 0.01869",
"-0.23873 -0.10347 0.00043",
"-0.22991 -0.10157 -0.00692",
"-0.22560 -0.09825 -0.01865",
"-0.23619 -0.09245 -0.03421",
"-0.23434 -0.08703 -0.03914",
"-0.22821 -0.08045 -0.04009",
"-0.22535 -0.07430 -0.04227",
"-0.22155 -0.07130 -0.04275",
"-0.21997 -0.06783 -0.04494",
"-0.21709 -0.06461 -0.04717",
"-0.21301 -0.06442 -0.04627",
"-0.21097 -0.06307 -0.04548",
"-0.20935 -0.05970 -0.04585",
"-0.20718 -0.05585 -0.04804",
"-0.20382 -0.05602 -0.04746",
"-0.20028 -0.05539 -0.04748",
"-0.20441 -0.06610 -0.04711",
"-0.21250 -0.09135 -0.04180",
"-0.20752 -0.08639 -0.04332",
"-0.20314 -0.07714 -0.04529",
"-0.20111 -0.07270 -0.04489",
"-0.19776 -0.06905 -0.04581",
"-0.19400 -0.06305 -0.04685",
"-0.19132 -0.05625 -0.04805",
"-0.18990 -0.05094 -0.04971",
"-0.18648 -0.04997 -0.04951",
"-0.18335 -0.05013 -0.04922",
"-0.18260 -0.05055 -0.05040",
"-0.18228 -0.05071 -0.04844",
"-0.18199 -0.05103 -0.04806",
"-0.18312 -0.05072 -0.04952",
"-0.17889 -0.05119 -0.04888",
"-0.17205 -0.05245 -0.04690",
"-0.18779 -0.04962 -0.05033",
"-0.19482 -0.04831 -0.05186",
"-0.19264 -0.04869 -0.05108",
"-0.19378 -0.04848 -0.05141",
"-0.19340 -0.04855 -0.05130",
"-0.19031 -0.04145 -0.05312",
"-0.18956 -0.03742 -0.05547",
"-0.18557 -0.03265 -0.05820",
"-0.18093 -0.02662 -0.05779",
"-0.18060 -0.02280 -0.05835",
"-0.18033 -0.01538 -0.07439",
"-0.17691 -0.00919 -0.07683",
"-0.17542 -0.01201 -0.07269",
"-0.18118 -0.02595 -0.07281",
"-0.18650 -0.03975 -0.07030",
"-0.18341 -0.03665 -0.06942",
"-0.18159 -0.03358 -0.06948",
"-0.18272 -0.03625 -0.06890",
"-0.18045 -0.03496 -0.06756",
"-0.17705 -0.03100 -0.06680",
"-0.17781 -0.03116 -0.06576",
"-0.17800 -0.03217 -0.06527",
"-0.17584 -0.03262 -0.06380",
"-0.17409 -0.03109 -0.06317",
"-0.17285 -0.02765 -0.06365",
"-0.17209 -0.02857 -0.06237",
"-0.17052 -0.02939 -0.06097",
"-0.16786 -0.02635 -0.05974",
"-0.16691 -0.02461 -0.05927",
"-0.16700 -0.02515 -0.05990",
"-0.16484 -0.02463 -0.05866",
"-0.16428 -0.02537 -0.05683",
"-0.16208 -0.02345 -0.05590",
"-0.16357 -0.01989 -0.05674",
"-0.17130 -0.01685 -0.05635",
"-0.16707 -0.01661 -0.05112",
"-0.16416 -0.01812 -0.04911",
"-0.16246 -0.01571 -0.05059",
"-0.15969 -0.01350 -0.04957",
"-0.15810 -0.01380 -0.04980",
"-0.15991 -0.00894 -0.06127",
"-0.15757 -0.00782 -0.06262",
"-0.15266 -0.00657 -0.05983",
"-0.15097 -0.00425 -0.06023",
"-0.14965 -0.00445 -0.05955",
"-0.14565 0.00215 -0.06007",
"-0.14354 0.00723 -0.06034",
"-0.14222 0.00984 -0.06172",
"-0.13663 0.01281 -0.06192",
"-0.13475 0.01705 -0.06160",
"-0.15485 0.02462 -0.06765",
"-0.15820 0.03001 -0.06962",
"-0.15502 0.02818 -0.06842",
"-0.15894 0.01883 -0.06814",
"-0.15865 0.01270 -0.06755",
"-0.15401 0.02010 -0.06727",
"-0.15183 0.02476 -0.06833",
"-0.14781 0.02965 -0.07004",
"-0.14382 0.03501 -0.07090",
"-0.14195 0.03795 -0.07040",
"-0.13719 0.04471 -0.07196",
"-0.13549 0.04864 -0.07362",
"-0.13075 0.05206 -0.07378",
"-0.12592 0.05561 -0.07346",
"-0.13070 0.05625 -0.07520",
"-0.12439 0.05909 -0.07397",
"-0.11638 0.06122 -0.07347",
"-0.11356 0.05523 -0.07194",
"-0.10496 0.06702 -0.07307",
"-0.08465 0.10880 -0.08070",
"-0.08214 0.10734 -0.08897",
"-0.08120 0.10279 -0.09057",
"-0.07779 0.10464 -0.08910",
"-0.08021 0.10425 -0.09039",
"-0.08525 0.10540 -0.09360",
"-0.07241 0.10356 -0.09138",
"-0.06038 0.09787 -0.08955",
"-0.05108 0.09375 -0.08819",
"-0.04040 0.09403 -0.08730",
"-0.03635 0.09325 -0.08905",
"-0.04684 0.09504 -0.09900",
"-0.04418 0.09337 -0.10302",
"-0.03070 0.09512 -0.10244",
"-0.01862 0.10147 -0.10510",
"-0.00830 0.10615 -0.11010",
"0.00136 0.10770 -0.10894",
"0.00970 0.10892 -0.10691",
"0.01786 0.11382 -0.10726",
"0.02480 0.11846 -0.10716",
"0.02530 0.12105 -0.10985",
"0.01768 0.12731 -0.12299",
"0.02029 0.12814 -0.12785",
"0.02917 0.12550 -0.12739",
"0.03093 0.12494 -0.12900",
"0.02635 0.12660 -0.12975",
"0.02887 0.12622 -0.12866",
"0.03247 0.12517 -0.13036",
"0.03659 0.12419 -0.13354",
"0.04230 0.12299 -0.12950",
"0.04960 0.12560 -0.12405",
"0.06162 0.12878 -0.14083",
"0.06594 0.12938 -0.14560",
"0.06228 0.12900 -0.14340",
"0.05988 0.12974 -0.14411",
"0.06075 0.12965 -0.14105",
"0.05839 0.12921 -0.14205",
"0.05716 0.12831 -0.14049",
"0.05950 0.13058 -0.13915",
"0.05990 0.13142 -0.14073",
"0.05890 0.12970 -0.14145",
"0.05922 0.12944 -0.14211",
"0.06171 0.13005 -0.13998",
"0.06107 0.13031 -0.13946",
"0.05952 0.12975 -0.13884",
"0.06060 0.12915 -0.13540",
"0.06020 0.13011 -0.13416",
"0.05873 0.13093 -0.13286",
"0.05710 0.12750 -0.13365",
"0.05818 0.12489 -0.12927",
"0.05865 0.12495 -0.12250",
"0.05094 0.12308 -0.13504",
"0.04988 0.12129 -0.13687",
"0.05278 0.12356 -0.13256",
"0.05069 0.12239 -0.13175",
"0.04745 0.11855 -0.12975",
"0.04859 0.11804 -0.12816",
"0.04756 0.11596 -0.12532",
"0.04731 0.11391 -0.12275",
"0.04863 0.11441 -0.12162",
"0.04645 0.11400 -0.12045",
"0.04457 0.11165 -0.11904",
"0.04314 0.11020 -0.11552",
"0.04162 0.10749 -0.11249",
"0.03870 0.10450 -0.11000",
"0.03625 0.10560 -0.10680",
"0.03633 0.10540 -0.10316",
"0.03349 0.10240 -0.10133",
"0.02943 0.09994 -0.09994",
"0.03093 0.10072 -0.09695",
"0.03145 0.10050 -0.09425",
"0.01195 0.10101 -0.09644",
"0.00310 0.09806 -0.09614",
"0.00457 0.09717 -0.09142",
"0.00222 0.09689 -0.08803",
"-0.00210 0.09305 -0.08695",
"-0.00302 0.09397 -0.08435",
"-0.00579 0.09276 -0.08219",
"-0.01196 0.08853 -0.08057",
"-0.00819 0.08639 -0.07721",
"0.00275 0.08430 -0.07360",
"-0.02087 0.08489 -0.07779",
"-0.02995 0.08521 -0.07685",
"-0.02692 0.08415 -0.07455",
"-0.02827 0.08480 -0.07460",
"-0.02885 0.08545 -0.07245",
"-0.03173 0.08497 -0.07209",
"-0.03320 0.08524 -0.07089",
"-0.03515 0.08521 -0.07011",
"-0.03716 0.08501 -0.06908",
"-0.03660 0.08545 -0.06660",
"-0.03876 0.08493 -0.06784",
"-0.04032 0.08453 -0.06737",
"-0.04004 0.08530 -0.06494",
"-0.04187 0.08553 -0.06381",
"-0.04475 0.08505 -0.06345",
"-0.04495 0.08593 -0.06245",
"-0.04429 0.08588 -0.06129",
"-0.04420 0.08574 -0.05928",
"-0.04504 0.08647 -0.05790",
"-0.04520 0.08675 -0.05710",
"-0.04596 0.08739 -0.05530",
"-0.04726 0.08781 -0.05331",
"-0.04585 0.08722 -0.05263",
"-0.04919 0.08813 -0.05289",
"-0.05770 0.09050 -0.05235",
"-0.04711 0.08901 -0.04757",
"-0.04609 0.08397 -0.04616",
"-0.04565 0.08160 -0.04555",
"-0.03555 0.08159 -0.04321",
"-0.03495 0.08100 -0.04320",
"-0.05723 0.08274 -0.04886",
"-0.06415 0.08353 -0.05070",
"-0.06123 0.08081 -0.05020",
"-0.06460 0.07951 -0.05028",
"-0.07000 0.08175 -0.04940",
"-0.06837 0.07893 -0.04834",
"-0.06306 0.07622 -0.04787",
"-0.05931 0.07900 -0.05403",
"-0.05338 0.09056 -0.06336",
"-0.04480 0.10710 -0.06700",
"-0.05326 0.11379 -0.07126",
"-0.06342 0.11573 -0.07807",
"-0.06921 0.11763 -0.08374",
"-0.07223 0.11903 -0.08964",
"-0.07285 0.11845 -0.09400",
"-0.06935 0.12227 -0.09400",
"-0.06930 0.12273 -0.09600",
"-0.06927 0.12551 -0.10585",
"-0.06041 0.13966 -0.11490",
"-0.04705 0.15890 -0.11475",
"-0.03860 0.16495 -0.11544",
"-0.02939 0.16772 -0.11256",
"-0.01866 0.16949 -0.10995",
"-0.00935 0.16977 -0.10876",
"-0.00355 0.16910 -0.10515",
"0.00121 0.16826 -0.10023",
"0.00367 0.16613 -0.09505",
"0.00595 0.16779 -0.09066",
"0.00987 0.16961 -0.08711",
"0.01185 0.16900 -0.08310",
"0.01709 0.16964 -0.07522",
"0.02507 0.16769 -0.06866",
"0.03853 0.16605 -0.06275",
"0.05448 0.16653 -0.05504",
"0.06180 0.16870 -0.04955",
"0.06568 0.16774 -0.04499",
"0.07168 0.16718 -0.04082",
"0.07728 0.16687 -0.03460",
"0.08285 0.16578 -0.02936",
"0.09280 0.16265 -0.02445",
"0.09562 0.15312 -0.01677",
"0.09086 0.14430 -0.00935",
"0.08210 0.13807 -0.00683",
"0.07449 0.12983 -0.00358",
"0.06825 0.12035 0.00170",
"0.06029 0.11295 0.00554",
"0.05100 0.10584 0.00815",
"0.04620 0.10056 0.01182",
"0.04229 0.09727 0.01379",
"0.03660 0.09485 0.01200",
"0.03259 0.09187 0.00985",
"0.02794 0.08886 0.00970",
"0.02354 0.08503 0.00943",
"0.01581 0.08396 0.00462",
"0.00275 0.08535 -0.00225",
"-0.00106 0.07795 0.00045",
"-0.00994 0.06742 0.00009",
"-0.02202 0.05722 -0.00191",
"-0.02964 0.04741 -0.00090",
"-0.04095 0.03820 -0.00130",
"-0.06686 0.03236 -0.00265",
"-0.07786 0.02663 -0.00237",
"-0.08255 0.01753 -0.00406",
"-0.08900 0.00765 -0.00564",
"-0.08710 0.00070 -0.00065",
"-0.08917 -0.00996 0.00166",
"-0.09096 -0.01843 -0.00061",
"-0.09118 -0.02360 -0.00317",
"-0.09077 -0.02547 -0.00364",
"-0.08925 -0.02575 -0.00320",
"-0.08887 -0.02582 -0.00309",
"-0.09056 -0.02826 -0.00295",
"-0.08997 -0.03112 -0.00215",
"-0.09271 -0.02975 -0.00329",
"-0.10295 -0.02850 -0.00560",
"-0.10543 -0.03317 -0.00139",
"-0.10565 -0.03411 -0.00194",
"-0.10458 -0.03377 -0.00401",
"-0.10345 -0.03410 -0.00305",
"-0.10345 -0.03410 -0.00305",
"-0.10170 -0.03040 -0.00427",
"-0.09967 -0.02975 -0.00482",
"-0.09774 -0.02854 -0.00487",
"-0.09650 -0.02588 -0.00608",
"-0.09555 -0.02585 -0.00750",
"-0.09258 -0.02356 -0.01024",
"-0.09192 -0.02114 -0.01084",
"-0.10072 -0.02615 -0.01979",
"-0.11256 -0.03263 -0.03557",
"-0.12505 -0.03825 -0.05430",
"-0.14740 -0.05889 -0.08824",
"-0.13923 -0.05622 -0.09879",
"-0.11661 -0.04973 -0.10206",
"-0.09527 -0.05275 -0.11403",
"-0.06490 -0.05215 -0.11975",
"-0.03124 -0.05872 -0.12575",
"0.03804 -0.04086 -0.13650",
"0.11262 -0.00880 -0.14619",
"0.18217 0.00945 -0.14455",
"0.27790 0.02215 -0.12845",
"0.39225 0.06539 -0.09969",
"0.52522 0.11731 -0.04529",
"0.64591 0.16430 0.03532",
"0.74569 0.20875 0.12873",
"0.85400 0.26090 0.23800",
"0.98003 0.32368 0.38914",
"1.06184 0.37183 0.53512",
"1.05121 0.36097 0.63649",
"0.95831 0.31410 0.71692",
"0.82805 0.27770 0.80035",
"0.68904 0.22132 0.83685",
"0.57014 0.16234 0.85100",
"0.43181 0.08140 0.86699",
"0.23887 -0.00934 0.87427",
"0.01905 -0.07795 0.85755",
"-0.16913 -0.15431 0.83721",
"-0.31250 -0.19717 0.79411",
"-0.37505 -0.19859 0.70673",
"-0.37621 -0.18987 0.59862",
"-0.37430 -0.19010 0.50995",
"-0.35789 -0.18613 0.44008",
"-0.33619 -0.18786 0.38083",
"-0.30905 -0.18617 0.31891",
"-0.28544 -0.18052 0.26111",
"-0.27025 -0.17305 0.22125",
"-0.25060 -0.15625 0.18116",
"-0.24064 -0.14446 0.13416",
"-0.23185 -0.12578 0.08561",
"-0.21226 -0.09602 0.04877",
"-0.19465 -0.07620 0.02720",
"-0.18981 -0.07486 0.01122",
"-0.18325 -0.07538 0.00656",
"-0.17833 -0.07462 0.00104",
"-0.17651 -0.07444 -0.00632",
"-0.17225 -0.07505 -0.00675",
"-0.16862 -0.07446 -0.00829",
"-0.16651 -0.07446 -0.01082",
"-0.16481 -0.07476 -0.01137",
"-0.16340 -0.07410 -0.01137",
"-0.16140 -0.07130 -0.01365",
"-0.15924 -0.07078 -0.01241",
"-0.15865 -0.07110 -0.01286",
"-0.15814 -0.07162 -0.01179",
"-0.15756 -0.07196 -0.01095",
"-0.15680 -0.07260 -0.01275",
"-0.15469 -0.07206 -0.01145",
"-0.15382 -0.07343 -0.01175",
"-0.15194 -0.07170 -0.01261",
"-0.15010 -0.06970 -0.01283",
"-0.14890 -0.07030 -0.01455",
"-0.14845 -0.07048 -0.01509",
"-0.14654 -0.07003 -0.01256",
"-0.14471 -0.07034 -0.01128",
"-0.14505 -0.07115 -0.01240",
"-0.14505 -0.07115 -0.01240",
"-0.14449 -0.07091 -0.01320",
"-0.14242 -0.07203 -0.01145",
"-0.13947 -0.06979 -0.01002",
"-0.13945 -0.06720 -0.01125",
"-0.13945 -0.06720 -0.01125",
"-0.13715 -0.06432 -0.01211",
"-0.13856 -0.06299 -0.01952",
"-0.13899 -0.06061 -0.02283",
"-0.13716 -0.05873 -0.02083",
"-0.13705 -0.05935 -0.02170",
"-0.13614 -0.05577 -0.02237",
"-0.13503 -0.05493 -0.02162",
"-0.13358 -0.05381 -0.02235",
"-0.13260 -0.05175 -0.02270",
"-0.13260 -0.05175 -0.02270",
"-0.13136 -0.04831 -0.02318",
"-0.12990 -0.04837 -0.02236",
"-0.12667 -0.04768 -0.02111",
"-0.12885 -0.04445 -0.02270",
"-0.13835 -0.04270 -0.02545",
"-0.13545 -0.03943 -0.02696",
"-0.13292 -0.03953 -0.02602",
"-0.13349 -0.04001 -0.02539",
"-0.13330 -0.03985 -0.02560",
"-0.13305 -0.03995 -0.02590",
"-0.13147 -0.04083 -0.02606",
"-0.13011 -0.04119 -0.02556",
"-0.12960 -0.04123 -0.02504",
"-0.12941 -0.04119 -0.02530",
"-0.12885 -0.04095 -0.02610",
"-0.12867 -0.04092 -0.02393",
"-0.12701 -0.04121 -0.02292",
"-0.13269 -0.04006 -0.02429",
"-0.14026 -0.03851 -0.02607",
"-0.13760 -0.03900 -0.02530",
"-0.13554 -0.03811 -0.02511",
"-0.13608 -0.03739 -0.02681",
"-0.13587 -0.03768 -0.02749",
"-0.13655 -0.03681 -0.02578",
"-0.14010 -0.03505 -0.02045",
"-0.14288 -0.03588 -0.01650",
"-0.14315 -0.03674 -0.01601",
"-0.14163 -0.03377 -0.01675",
"-0.14031 -0.03117 -0.01674",
"-0.13815 -0.03065 -0.01550",
"-0.13811 -0.03045 -0.01494",
"-0.13675 -0.02764 -0.01576",
"-0.13577 -0.02557 -0.01649",
"-0.13621 -0.02478 -0.01574",
"-0.13645 -0.02410 -0.01530",
"-0.13625 -0.02498 -0.01630",
"-0.13533 -0.02274 -0.01793",
"-0.13248 -0.01925 -0.01774",
"-0.13114 -0.02014 -0.01677",
"-0.13070 -0.02090 -0.01745",
"-0.13054 -0.01718 -0.02193",
"-0.13107 -0.01596 -0.02464",
"-0.13024 -0.01639 -0.02526",
"-0.12920 -0.01692 -0.02496",
"-0.12900 -0.01700 -0.02520",
"-0.12738 -0.01363 -0.02557",
"-0.12930 -0.01326 -0.02736",
"-0.12785 -0.01152 -0.02746",
"-0.12522 -0.00732 -0.02658",
"-0.12515 -0.00825 -0.02635",
"-0.12268 -0.00934 -0.02532",
"-0.12117 -0.00619 -0.02685",
"-0.11813 -0.00436 -0.02560",
"-0.11462 -0.00399 -0.02309",
"-0.11350 -0.00155 -0.02345",
"-0.11078 -0.00079 -0.02301",
"-0.10879 -0.00158 -0.02227",
"-0.10588 0.00056 -0.02331",
"-0.10233 0.00353 -0.02468",
"-0.10015 0.00640 -0.02440",
"-0.09197 0.01049 -0.02345",
"-0.08800 0.01170 -0.02331",
"-0.08618 0.01224 -0.02446",
"-0.08004 0.01646 -0.02504",
"-0.07280 0.01990 -0.02360",
"-0.06839 0.01988 -0.02414",
"-0.06400 0.02136 -0.02473",
"-0.05574 0.02609 -0.02546",
"-0.04959 0.02782 -0.02455",
"-0.04760 0.02820 -0.02430",
"-0.04191 0.03489 -0.03532",
"-0.03141 0.04180 -0.03883",
"-0.02328 0.04574 -0.03604",
"-0.01951 0.04924 -0.04390",
"-0.01260 0.05455 -0.06005",
"-0.00411 0.06022 -0.06127",
"0.00025 0.06598 -0.06116",
"0.00138 0.06086 -0.06320",
"0.00789 0.06397 -0.06525",
"0.01860 0.08915 -0.07035",
"0.02633 0.08598 -0.07212",
"0.03015 0.08265 -0.07456",
"0.03463 0.08281 -0.07661",
"0.03908 0.08204 -0.07929",
"0.04180 0.08040 -0.08305",
"0.04548 0.07931 -0.08401",
"0.05002 0.07805 -0.08440",
"0.05454 0.07741 -0.08420",
"0.05625 0.07673 -0.08327",
"0.05870 0.07510 -0.08240",
"0.06679 0.07394 -0.08465",
"0.07042 0.07373 -0.08664",
"0.07243 0.07175 -0.08769",
"0.07878 0.06865 -0.08972",
"0.08290 0.06525 -0.09320",
"0.08345 0.06509 -0.09161",
"0.08541 0.06460 -0.08997",
"0.08980 0.06452 -0.08709",
"0.09347 0.06453 -0.08388",
"0.09445 0.06460 -0.08275",
"0.09007 0.06545 -0.08372",
"0.08493 0.06682 -0.08480",
"0.07991 0.06727 -0.08464",
"0.07333 0.06780 -0.08548",
"0.06870 0.06875 -0.08615",
"0.06904 0.06802 -0.08582",
"0.07169 0.06828 -0.08540",
"0.07413 0.06510 -0.08239",
"0.07404 0.06152 -0.08059",
"0.07510 0.06045 -0.08060",
"0.07798 0.06017 -0.07892",
"0.07991 0.05742 -0.07692",
"0.07475 0.05511 -0.07745",
"0.06661 0.05699 -0.07945",
"0.06275 0.05760 -0.07870",
"0.06325 0.05457 -0.07587",
"0.06098 0.05256 -0.07559",
"0.05972 0.05450 -0.07571",
"0.05922 0.05292 -0.07379",
"0.05750 0.04880 -0.07135",
"0.05738 0.04928 -0.06999",
"0.05775 0.05117 -0.06835",
"0.05438 0.04935 -0.06677",
"0.05098 0.04698 -0.06490",
"0.05195 0.04670 -0.06265",
"0.05137 0.04735 -0.06050",
"0.04707 0.04486 -0.05884",
"0.04503 0.04234 -0.05719",
"0.04669 0.04411 -0.05503",
"0.04535 0.04490 -0.05310",
"0.03941 0.03769 -0.05165",
"0.03738 0.03277 -0.04857",
"0.03016 0.03104 -0.04796",
"0.01812 0.02898 -0.04974",
"0.01110 0.02765 -0.04945",
"0.00764 0.02406 -0.04682",
"0.00562 0.02027 -0.04443",
"0.00184 0.01715 -0.04317",
"-0.00123 0.01466 -0.04170",
"-0.00195 0.01470 -0.04010",
"-0.00507 0.01490 -0.03930",
"-0.00647 0.01289 -0.03671",
"-0.00797 0.00999 -0.03511",
"-0.01029 0.01068 -0.03474",
"-0.01125 0.01140 -0.03270",
"-0.01507 0.00743 -0.03165",
"-0.01707 0.00671 -0.02896",
"-0.01883 0.00961 -0.02822",
"-0.02073 0.00852 -0.02690",
"-0.02165 0.00620 -0.02350",
"-0.02237 0.00704 -0.02114",
"-0.02293 0.00891 -0.01937",
"-0.02545 0.00603 -0.01684",
"-0.02842 0.00299 -0.01501",
"-0.02820 0.00320 -0.01410",
"-0.02702 0.00289 -0.01195",
"-0.02813 0.00048 -0.00968",
"-0.03148 -0.00268 -0.00856",
"-0.03343 -0.00083 -0.00856",
"-0.03410 -0.00015 -0.00710",
"-0.03846 -0.00687 -0.00274",
"-0.04224 -0.00998 0.00028",
"-0.04308 -0.01976 0.00452",
"-0.04685 -0.03073 0.00654",
"-0.05860 -0.02295 0.00095",
"-0.05773 -0.02207 0.00366",
"-0.05311 -0.02081 0.00531",
"-0.05197 -0.02003 0.00533",
"-0.05200 -0.01909 0.00483",
"-0.05140 -0.01645 0.00355",
"-0.05064 -0.01709 0.00175",
"-0.04834 -0.01495 0.00107",
"-0.04595 -0.01342 0.00184",
"-0.04505 -0.01274 0.00184",
"-0.04385 -0.00950 0.00080",
"-0.03993 -0.00994 0.00204",
"-0.03761 -0.00735 0.00264",
"-0.03705 -0.00594 0.00055",
"-0.03083 -0.00568 0.00210",
"-0.02490 -0.00215 0.00320",
"-0.03606 -0.00089 -0.00857",
"-0.04535 0.00702 -0.01614",
"-0.04299 0.01207 -0.01491",
"-0.04394 0.01706 -0.01840",
"-0.05705 0.02805 -0.03140",
"-0.05869 0.03186 -0.03358",
"-0.05551 0.03717 -0.03459",
"-0.05171 0.04370 -0.03538",
"-0.04977 0.04557 -0.03348",
"-0.05285 0.04050 -0.03600",
"-0.05818 0.03639 -0.05179",
"-0.05554 0.04766 -0.06209",
"-0.04648 0.06147 -0.06286",
"-0.04888 0.06577 -0.07136",
"-0.05755 0.07300 -0.08905",
"-0.03369 0.10001 -0.08445",
"-0.01329 0.10452 -0.07181",
"-0.00878 0.10083 -0.06530",
"-0.00655 0.10224 -0.06222",
"-0.00295 0.10200 -0.05830",
"-0.00359 0.10128 -0.05526",
"-0.00268 0.10097 -0.05131",
"-0.00325 0.09986 -0.04883",
"-0.00091 0.09973 -0.04596",
"0.01170 0.10150 -0.03765",
"0.02457 0.09932 -0.02872",
"0.03919 0.09479 -0.01888",
"0.04616 0.09139 -0.01156",
"0.05155 0.09048 -0.00341",
"0.06495 0.09070 0.00885",
"0.06603 0.08821 0.01136",
"0.06673 0.08630 0.01109",
"0.07556 0.08696 0.01285",
"0.08510 0.08925 0.01268",
"0.08485 0.08910 0.00540",
"0.08783 0.08226 0.00390",
"0.08988 0.07785 0.00862",
"0.08862 0.07275 0.01603",
"0.09456 0.06562 0.02858",
"0.10925 0.05885 0.04510",
"0.10039 0.05035 0.04770",
"0.09242 0.04144 0.05871",
"0.08405 0.03419 0.06604",
"0.07344 0.02872 0.06072",
"0.06505 0.02370 0.05755",
"0.05211 0.01609 0.06036",
"0.04165 0.00978 0.05963",
"0.03075 0.00206 0.05553",
"0.02610 -0.00705 0.05521",
"0.02750 -0.01545 0.05585",
"0.00652 -0.02253 0.04955",
"-0.01629 -0.02596 0.04412",
"-0.03613 -0.03657 0.04467",
"-0.05364 -0.05058 0.04542",
"-0.06730 -0.05585 0.04185",
"-0.07459 -0.06588 0.04154",
"-0.07787 -0.06935 0.04011",
"-0.09077 -0.07978 0.04174",
"-0.10612 -0.09612 0.04512",
"-0.10770 -0.09840 0.04520",
"-0.10770 -0.09840 0.04520",
"-0.10690 -0.09871 0.04592",
"-0.10555 -0.09828 0.04488",
"-0.10580 -0.09753 0.04291",
"-0.10535 -0.09775 0.04530",
"-0.10388 -0.09801 0.04580",
"-0.10565 -0.09816 0.04524",
"-0.10694 -0.09868 0.04641",
"-0.10397 -0.09902 0.04836",
"-0.10245 -0.09930 0.04880",
"-0.10142 -0.10136 0.04991",
"-0.09701 -0.09051 0.04709",
"-0.10022 -0.09953 0.04885",
"-0.10976 -0.11724 0.04825",
"-0.11210 -0.11055 0.03725",
"-0.11151 -0.10681 0.03462",
"-0.11021 -0.10354 0.03403",
"-0.10982 -0.10129 0.03418",
"-0.10947 -0.10091 0.03444",
"-0.10790 -0.09670 0.03325",
"-0.10920 -0.09271 0.03216",
"-0.11152 -0.09253 0.02757",
"-0.12110 -0.09337 0.01735",
"-0.13691 -0.09122 -0.01352",
"-0.14460 -0.09100 -0.05650",
"-0.13574 -0.09350 -0.06194",
"-0.12543 -0.08823 -0.06774",
"-0.10642 -0.08503 -0.07475",
"-0.07667 -0.08623 -0.07561",
"-0.04420 -0.08930 -0.08715",
"0.00476 -0.09608 -0.11032",
"0.07077 -0.08002 -0.11530",
"0.15239 -0.06300 -0.10865",
"0.24509 -0.04375 -0.11804",
"0.35275 -0.00355 -0.11735",
"0.48635 0.03123 -0.03863",
"0.61566 0.08121 0.02969",
"0.71966 0.13793 0.09929",
"0.82868 0.19200 0.21359",
"0.95505 0.25010 0.35710",
"1.02933 0.30099 0.49510",
"1.05217 0.32236 0.61969",
"1.00828 0.31282 0.71198",
"0.90340 0.29109 0.76510",
"0.77830 0.26385 0.80385",
"0.65840 0.20753 0.84917",
"0.53423 0.12808 0.86159",
"0.37317 0.08149 0.83045",
"0.17965 0.04419 0.79684",
"-0.02140 -0.03920 0.78365",
"-0.22480 -0.11408 0.74213",
"-0.32455 -0.15277 0.67657",
"-0.34803 -0.16148 0.58621",
"-0.35717 -0.16560 0.49871",
"-0.35875 -0.17690 0.44595",
"-0.35224 -0.17607 0.39704",
"-0.33576 -0.17646 0.34051",
"-0.31822 -0.18223 0.28904",
"-0.31014 -0.18423 0.24623",
"-0.30635 -0.18235 0.20420",
"-0.28683 -0.18033 0.16531",
"-0.27009 -0.18012 0.12930",
"-0.25285 -0.17301 0.09674",
"-0.23860 -0.15821 0.06313",
"-0.23575 -0.14295 0.03235",
"-0.22108 -0.13118 0.02657",
"-0.20855 -0.12134 0.02448",
"-0.19972 -0.11064 0.01958",
"-0.19108 -0.09658 0.01328",
"-0.18590 -0.08970 0.00720",
"-0.18869 -0.10580 0.00744",
"-0.18761 -0.10872 0.00523",
"-0.18491 -0.10467 0.00278",
"-0.18413 -0.10559 0.00191",
"-0.18245 -0.10615 0.00155",
"-0.18193 -0.10639 0.00327",
"-0.18178 -0.10712 0.00329",
"-0.18124 -0.10775 0.00152",
"-0.18090 -0.10750 0.00075",
"-0.18090 -0.10750 0.00075",
"-0.17970 -0.10426 -0.00029",
"-0.17912 -0.10344 0.00091",
"-0.17766 -0.10443 0.00163",
"-0.17621 -0.10524 0.00040",
"-0.17565 -0.10500 -0.00040",
"-0.17565 -0.10500 -0.00040",
"-0.17526 -0.10518 0.00089",
"-0.17487 -0.10536 0.00218",
"-0.17464 -0.10466 0.00138",
"-0.17320 -0.10210 -0.00010",
"-0.17226 -0.10193 -0.00079",
"-0.17391 -0.10223 -0.00134",
"-0.16838 -0.10105 0.00065",
"-0.16645 -0.09925 0.00130",
"-0.17975 -0.09680 -0.00255",
"-0.17627 -0.09618 -0.00189",
"-0.17409 -0.09718 -0.00142",
"-0.17415 -0.09505 -0.00286",
"-0.17227 -0.09307 -0.00319",
"-0.17265 -0.09300 -0.00330",
"-0.16993 -0.09224 -0.00286",
"-0.16885 -0.09218 -0.00132",
"-0.16813 -0.09106 -0.00102",
"-0.16642 -0.08922 -0.00234",
"-0.16490 -0.08950 -0.00190",
"-0.16274 -0.08898 -0.00066",
"-0.16067 -0.08660 -0.00164",
"-0.15913 -0.08511 -0.00259",
"-0.15965 -0.08510 -0.00250",
"-0.15965 -0.08510 -0.00250",
"-0.15917 -0.08554 -0.00134",
"-0.15590 -0.08301 -0.00141",
"-0.15237 -0.08044 -0.00166",
"-0.15190 -0.08160 -0.00110",
"-0.15190 -0.08160 -0.00110",
"-0.15190 -0.08160 -0.00110",
"-0.14931 -0.07920 -0.00066",
"-0.14616 -0.07656 -0.00102",
"-0.14661 -0.07727 -0.00190",
"-0.14645 -0.07755 -0.00270",
"-0.14697 -0.07731 -0.00442",
"-0.14675 -0.07686 -0.00554",
"-0.14533 -0.07766 -0.00622",
"-0.14918 -0.07765 -0.00787",
"-0.16190 -0.07535 -0.01185",
"-0.16142 -0.07177 -0.01255",
"-0.15993 -0.07108 -0.01329",
"-0.15820 -0.07063 -0.01361",
"-0.15683 -0.07041 -0.01339",
"-0.15715 -0.07025 -0.01535",
"-0.15654 -0.07003 -0.01621",
"-0.15660 -0.06989 -0.01617",
"-0.15670 -0.06985 -0.01605",
"-0.15639 -0.06899 -0.01617",
"-0.15515 -0.06555 -0.01665",
"-0.15571 -0.06579 -0.01585",
"-0.15479 -0.06570 -0.01392",
"-0.15325 -0.06554 -0.01290",
"-0.15533 -0.06509 -0.00937",
"-0.15870 -0.06350 -0.00195",
"-0.15926 -0.06361 -0.00262",
"-0.16362 -0.06090 0.00617",
"-0.16400 -0.05963 0.01238",
"-0.16361 -0.05954 0.00813",
"-0.17150 -0.05395 0.00455",
"-0.16744 -0.05428 0.00432",
"-0.16422 -0.05176 0.00355",
"-0.16256 -0.05031 0.00212",
"-0.16041 -0.05013 0.00064",
"-0.15860 -0.04640 -0.00050",
"-0.15779 -0.04679 -0.00160",
"-0.15680 -0.04817 -0.00202",
"-0.15468 -0.04622 -0.00249",
"-0.15381 -0.04419 -0.00361",
"-0.15320 -0.04465 -0.00495",
"-0.14779 -0.04175 -0.00449",
"-0.14449 -0.04140 -0.00381",
"-0.14174 -0.03971 -0.00461",
"-0.13761 -0.03635 -0.00459",
"-0.13615 -0.03750 -0.00435",
"-0.13510 -0.03685 -0.01085",
"-0.12947 -0.03476 -0.01017",
"-0.12630 -0.03262 -0.00919",
"-0.12560 -0.03349 -0.01050",
"-0.12320 -0.03365 -0.00970",
"-0.11856 -0.03413 -0.01006",
"-0.11705 -0.03430 -0.01059",
"-0.11680 -0.03522 -0.00955",
"-0.11184 -0.03420 -0.00957",
"-0.10425 -0.02780 -0.01165",
"-0.10044 -0.02447 -0.01200",
"-0.09763 -0.02078 -0.01365",
"-0.09119 -0.01862 -0.01465",
"-0.08830 -0.01531 -0.01630",
"-0.09200 -0.01020 -0.02025",
"-0.08261 -0.00831 -0.01806",
"-0.07558 -0.00492 -0.01688",
"-0.07044 -0.00542 -0.01912",
"-0.06092 -0.00554 -0.02248",
"-0.05125 -0.00200 -0.02490",
"-0.04350 -0.00316 -0.02744",
"-0.03685 -0.00214 -0.03124",
"-0.02770 -0.00077 -0.03322",
"-0.01974 -0.00022 -0.03685",
"-0.01335 0.00185 -0.04295",
"-0.00581 0.00476 -0.04543",
"0.00064 0.00714 -0.05035",
"0.00510 0.00957 -0.05453",
"0.01018 0.01177 -0.05652",
"0.01505 0.01320 -0.06110",
"0.01815 0.01537 -0.06209",
"0.02721 0.03437 -0.06553",
"0.03232 0.04375 -0.07124",
"0.03231 0.03706 -0.07328",
"0.03490 0.03850 -0.07200",
"0.03694 0.03908 -0.07448",
"0.03917 0.03804 -0.07899",
"0.04476 0.03684 -0.08218",
"0.05093 0.03498 -0.08267",
"0.05495 0.03025 -0.08095",
"0.05852 0.03002 -0.08181",
"0.06164 0.02886 -0.08375",
"0.06389 0.02710 -0.08484",
"0.06932 0.02628 -0.08681",
"0.07535 0.02535 -0.09135",
"0.07822 0.02477 -0.09182",
"0.07690 0.02191 -0.09034",
"0.07965 0.01932 -0.08720",
"0.08462 0.01995 -0.08590",
"0.08850 0.01915 -0.08570",
"0.09206 0.01835 -0.08310",
"0.09456 0.01884 -0.08121",
"0.09344 0.01618 -0.08257",
"0.09191 0.01346 -0.08264",
"0.09285 0.01335 -0.08025",
"0.09245 0.01351 -0.07977",
"0.09237 0.01399 -0.08047",
"0.09324 0.01369 -0.07951",
"0.09305 0.01225 -0.07737",
"0.09330 0.01325 -0.07745",
"0.09701 0.02232 -0.08324",
"0.09573 0.02303 -0.08247",
"0.09067 0.01739 -0.07850",
"0.08715 0.01507 -0.07706",
"0.08540 0.01285 -0.07460",
"0.08164 0.00897 -0.07124",
"0.08065 0.00819 -0.06888",
"0.07798 0.00827 -0.06822",
"0.07425 0.00416 -0.06465",
"0.07265 0.00080 -0.06005",
"0.06737 -0.00172 -0.05945",
"0.06408 -0.00553 -0.05794",
"0.06324 -0.00712 -0.05618",
"0.06104 -0.00783 -0.05472",
"0.05630 -0.01445 -0.05010",
"0.05189 -0.01767 -0.04876",
"0.04905 -0.02354 -0.04565",
"0.04449 -0.02783 -0.04086",
"0.03990 -0.03029 -0.03770",
"0.03755 -0.03295 -0.03500",
"0.03332 -0.03245 -0.03218",
"0.03131 -0.03170 -0.02908",
"0.02887 -0.03084 -0.02808",
"0.02677 -0.03096 -0.02633",
"0.02545 -0.03360 -0.02265",
"0.02113 -0.03664 -0.02081",
"0.01809 -0.03923 -0.01892",
"0.01838 -0.04112 -0.01783",
"0.01741 -0.04021 -0.01673",
"0.01350 -0.04005 -0.01480",
"0.00866 -0.04205 -0.01836",
"0.00388 -0.04320 -0.02026",
"0.00212 -0.04225 -0.01823",
"-0.00062 -0.04284 -0.01574",
"-0.00720 -0.04665 -0.01465",
"-0.00965 -0.05037 -0.01205",
"-0.01072 -0.04739 -0.01258",
"-0.01174 -0.04443 -0.01317",
"-0.01170 -0.04423 -0.01160",
"-0.01215 -0.04325 -0.01030",
"-0.01456 -0.04367 -0.01124",
"-0.01496 -0.04404 -0.01149",
"-0.01444 -0.04483 -0.01150",
"-0.01511 -0.04451 -0.01022",
"-0.01950 -0.04670 -0.00515",
"-0.02588 -0.05605 0.00088",
"-0.03073 -0.06499 0.00193",
"-0.03318 -0.06596 -0.00012",
"-0.03244 -0.06292 -0.00086",
"-0.03250 -0.06275 -0.00075",
"-0.03218 -0.05859 -0.00191",
"-0.03196 -0.05749 -0.00240",
"-0.03238 -0.05575 -0.00246",
"-0.03298 -0.05291 -0.00429",
"-0.03510 -0.05295 -0.00805",
"-0.03538 -0.04923 -0.00897",
"-0.03581 -0.04797 -0.01007",
"-0.03630 -0.04566 -0.01203",
"-0.03751 -0.04284 -0.01392",
"-0.04005 -0.04330 -0.01280",
"-0.04319 -0.04040 -0.01396",
"-0.04356 -0.03960 -0.01630",
"-0.04346 -0.03774 -0.01856",
"-0.04375 -0.03495 -0.01865",
"-0.04375 -0.03495 -0.01865",
"-0.04418 -0.02757 -0.02006",
"-0.04619 -0.01984 -0.02522",
"-0.04606 -0.01169 -0.02942",
"-0.04543 -0.00388 -0.03218",
"-0.04655 0.00360 -0.03630",
"-0.04538 0.01154 -0.03875",
"-0.04743 0.01703 -0.04628",
"-0.04725 0.02301 -0.05194",
"-0.04454 0.03069 -0.05529",
"-0.04220 0.03400 -0.06180",
"-0.03442 0.03602 -0.06409",
"-0.03735 0.04265 -0.07583",
"-0.03856 0.04924 -0.08951",
"-0.03132 0.05222 -0.09432",
"-0.02525 0.05360 -0.09275",
"-0.01865 0.05255 -0.09281",
"-0.01486 0.04756 -0.08614",
"-0.00625 0.05867 -0.08053",
"0.00318 0.07275 -0.07626",
"0.00585 0.06700 -0.06715",
"0.01038 0.06669 -0.06184",
"0.01333 0.06468 -0.05363",
"0.01288 0.06122 -0.04709",
"0.01183 0.06026 -0.04488",
"0.01325 0.06020 -0.04280",
"0.01997 0.05506 -0.03754",
"0.03365 0.05445 -0.02972",
"0.04420 0.05645 -0.02698",
"0.05208 0.05284 -0.02392",
"0.06310 0.04940 -0.01510",
"0.06480 0.04861 -0.00991",
"0.06483 0.04856 -0.00716",
"0.06498 0.04518 -0.00334",
"0.06411 0.04115 0.00026",
"0.06590 0.04125 0.00310",
"0.07197 0.04053 0.00792",
"0.07786 0.03317 0.01395",
"0.07904 0.02421 0.01768",
"0.07571 0.01727 0.02089",
"0.07200 0.01040 0.02575",
"0.06802 0.00373 0.03082",
"0.06509 -0.00424 0.03470",
"0.05958 -0.00725 0.03778",
"0.04859 -0.01679 0.04299",
"0.03685 -0.03795 0.04905",
"0.03133 -0.04200 0.05053",
"0.02461 -0.04293 0.04420",
"0.01625 -0.04707 0.03781",
"0.00945 -0.04786 0.03188",
"0.00285 -0.04690 0.02400",
"-0.00980 -0.05315 0.01553",
"-0.02171 -0.06120 0.01478",
"-0.03067 -0.06350 0.01584",
"-0.03878 -0.06192 0.01541",
"-0.04595 -0.06405 0.01680",
"-0.05550 -0.07654 0.01903",
"-0.06911 -0.09482 0.02157",
"-0.08049 -0.10477 0.02609",
"-0.08426 -0.10472 0.03067",
"-0.08365 -0.10410 0.02910",
"-0.08937 -0.10520 0.02596",
"-0.09373 -0.10353 0.02664",
"-0.09345 -0.10268 0.02854",
"-0.09392 -0.10387 0.02693",
"-0.09530 -0.10430 0.02560",
"-0.09506 -0.10498 0.02516",
"-0.09542 -0.10829 0.02525",
"-0.09710 -0.11140 0.02466",
"-0.09741 -0.11113 0.02402",
"-0.09665 -0.11205 0.02530",
"-0.09789 -0.11105 0.02394",
"-0.09805 -0.11086 0.02342",
"-0.09840 -0.11051 0.02335",
"-0.10091 -0.10956 0.02308",
"-0.10015 -0.10970 0.02330",
"-0.09045 -0.11477 0.02661",
"-0.08849 -0.11687 0.02868",
"-0.09411 -0.12846 0.03051",
"-0.09769 -0.13946 0.02939",
"-0.09815 -0.13110 0.02105",
"-0.09982 -0.12450 0.01083",
"-0.10939 -0.12037 -0.01063",
"-0.12668 -0.12190 -0.04673",
"-0.12981 -0.12276 -0.07664",
"-0.10935 -0.11920 -0.08470",
"-0.09443 -0.12073 -0.09447",
"-0.06377 -0.11180 -0.10756",
"-0.02426 -0.10414 -0.12265",
"0.02571 -0.10505 -0.13397",
"0.09345 -0.10220 -0.13505",
"0.15431 -0.10235 -0.12910",
"0.25091 -0.08053 -0.12470",
"0.37005 -0.05001 -0.11023",
"0.50023 -0.01252 -0.07485",
"0.64840 0.05370 -0.02130",
"0.78551 0.12504 0.05258",
"0.90392 0.19218 0.15310",
"1.02128 0.24543 0.27351",
"1.14015 0.30536 0.40885",
"1.21175 0.36370 0.54850",
"1.16709 0.35500 0.65250",
"1.07231 0.34430 0.70677",
"0.95999 0.33857 0.74520",
"0.83565 0.29877 0.78036",
"0.70935 0.22135 0.79690",
"0.57050 0.16776 0.79458",
"0.38264 0.12525 0.75056",
"0.15770 0.04923 0.72481",
"-0.07157 -0.05358 0.72076",
"-0.24615 -0.12420 0.67430",
"-0.28786 -0.14001 0.59642",
"-0.31380 -0.14479 0.51338",
"-0.34758 -0.16013 0.45057",
"-0.36232 -0.18510 0.41220",
"-0.35400 -0.21095 0.37660",
"-0.32739 -0.21800 0.32311",
"-0.31240 -0.22227 0.27991",
"-0.29344 -0.22476 0.23849",
"-0.26831 -0.22705 0.19197",
"-0.25495 -0.23005 0.15295",
"-0.23551 -0.21758 0.11901",
"-0.21744 -0.20170 0.08744",
"-0.20198 -0.19383 0.06482",
"-0.18907 -0.19080 0.05179",
"-0.18135 -0.18685 0.04250",
"-0.17495 -0.18203 0.03713",
"-0.17119 -0.17743 0.03067",
"-0.16726 -0.17202 0.02491",
"-0.16312 -0.16560 0.02041",
"-0.15945 -0.15870 0.01655",
"-0.15780 -0.15449 0.01392",
"-0.15457 -0.15504 0.01244",
"-0.15323 -0.15411 0.01359",
"-0.15387 -0.15298 0.01463",
"-0.15185 -0.15395 0.01275",
"-0.15109 -0.15406 0.01095",
"-0.14945 -0.15190 0.00904",
"-0.14834 -0.14978 0.00708",
"-0.14797 -0.15067 0.00737",
"-0.14585 -0.15035 0.00805",
"-0.14685 -0.15003 0.00625",
"-0.14680 -0.15067 0.00487",
"-0.14650 -0.15139 0.00394",
"-0.14660 -0.15115 0.00425",
"-0.14660 -0.15115 0.00425",
"-0.14394 -0.15115 0.00283",
"-0.14688 -0.14986 -0.00589",
"-0.14915 -0.14901 -0.01042",
"-0.14773 -0.14966 -0.00776",
"-0.14790 -0.14980 -0.00875",
"-0.14710 -0.15024 -0.00999",
"-0.14729 -0.15037 -0.01067",
"-0.14636 -0.15018 -0.00987",
"-0.14322 -0.15009 -0.00900",
"-0.13720 -0.15100 -0.00665",
"-0.13354 -0.15231 -0.00610",
"-0.13427 -0.15249 -0.00685",
"-0.13544 -0.15243 -0.00760",
"-0.13491 -0.15239 -0.00755",
"-0.13435 -0.15215 -0.00835",
"-0.13467 -0.14863 -0.00983",
"-0.13422 -0.14804 -0.00923",
"-0.13366 -0.14818 -0.00784",
"-0.13432 -0.14836 -0.00851",
"-0.13620 -0.14920 -0.00915",
"-0.13620 -0.14920 -0.00915",
"-0.13433 -0.14882 -0.00854",
"-0.13346 -0.14840 -0.00665",
"-0.13474 -0.14845 -0.00586",
"-0.13470 -0.14825 -0.00530",
"-0.13470 -0.14825 -0.00530",
"-0.13587 -0.14772 -0.00510",
"-0.13680 -0.14787 -0.00534",
"-0.13594 -0.14764 -0.00582",
"-0.13470 -0.14420 -0.00630",
"-0.13694 -0.14360 -0.00822",
"-0.13788 -0.14338 -0.00881",
"-0.13712 -0.14352 -0.00859",
"-0.13788 -0.14338 -0.00881",
"-0.13940 -0.14310 -0.00925",
"-0.13744 -0.14250 -0.00777",
"-0.13676 -0.14258 -0.00708",
"-0.13771 -0.14182 -0.00815",
"-0.13752 -0.14127 -0.00889",
"-0.13410 -0.14190 -0.00790",
"-0.13088 -0.14245 -0.00667",
"-0.13216 -0.14335 -0.00691",
"-0.13151 -0.14003 -0.00689",
"-0.13016 -0.13668 -0.00654",
"-0.13230 -0.13565 -0.00665",
"-0.13436 -0.13523 -0.00909",
"-0.13504 -0.13125 -0.00875",
"-0.13467 -0.12800 -0.00857",
"-0.13827 -0.12849 -0.01054",
"-0.14340 -0.12715 -0.01285",
"-0.13634 -0.12340 -0.01004",
"-0.14124 -0.11882 -0.01507",
"-0.15086 -0.12020 -0.01430",
"-0.15286 -0.12116 -0.00741",
"-0.15130 -0.11735 -0.00900",
"-0.15116 -0.11729 -0.00920",
"-0.15063 -0.11862 -0.00875",
"-0.14760 -0.11576 -0.00819",
"-0.14485 -0.11287 -0.00786",
"-0.14465 -0.11295 -0.00810",
"-0.14267 -0.11244 -0.00721",
"-0.13951 -0.11024 -0.00748",
"-0.13652 -0.10779 -0.00772",
"-0.13559 -0.10799 -0.00659",
"-0.13540 -0.10740 -0.00610",
"-0.12911 -0.10430 -0.00420",
"-0.12765 -0.10348 -0.00359",
"-0.12644 -0.10319 -0.00256",
"-0.12591 -0.10261 -0.00202",
"-0.12515 -0.10275 -0.00180",
"-0.11215 -0.09689 0.00090",
"-0.12419 -0.08894 -0.00369",
"-0.13320 -0.08407 -0.00662",
"-0.12578 -0.08108 -0.00485",
"-0.12530 -0.07750 -0.00555",
"-0.12232 -0.07367 -0.00546",
"-0.11740 -0.07080 -0.00406",
"-0.11209 -0.06518 -0.00416",
"-0.10804 -0.06044 -0.00516",
"-0.10580 -0.05860 -0.00480",
"-0.09944 -0.05236 -0.00508",
"-0.09398 -0.04854 -0.00553",
"-0.09075 -0.04451 -0.00764",
"-0.08765 -0.03906 -0.00968",
"-0.08335 -0.03680 -0.00980",
"-0.07754 -0.03040 -0.00880",
"-0.07583 -0.02718 -0.01030",
"-0.07685 -0.04046 -0.00941",
"-0.07406 -0.05518 -0.00843",
"-0.06405 -0.04515 -0.01370",
"-0.05616 -0.04185 -0.01906",
"-0.04794 -0.04035 -0.02514",
"-0.03783 -0.03617 -0.02718",
"-0.02986 -0.03244 -0.02756",
"-0.02500 -0.03070 -0.03365",
"-0.02082 -0.02673 -0.04330",
"-0.01614 -0.02347 -0.04757",
"-0.01087 -0.02050 -0.04854",
"-0.00614 -0.01914 -0.05394",
"-0.00230 -0.02210 -0.06110",
"0.00237 -0.01825 -0.06212",
"0.00793 -0.01927 -0.06828",
"0.01901 -0.01903 -0.07182",
"0.02905 -0.01291 -0.07226",
"0.02845 -0.01020 -0.08285",
"0.02821 -0.01204 -0.09958",
"0.03082 -0.01163 -0.10116",
"0.03183 -0.01079 -0.09863",
"0.03087 -0.01450 -0.09998",
"0.02785 -0.02520 -0.09860",
"0.02475 -0.03506 -0.09624",
"0.04114 -0.03343 -0.10409",
"0.06148 -0.02800 -0.10784",
"0.06864 -0.02788 -0.10324",
"0.06660 -0.02830 -0.10255",
"0.06892 -0.02882 -0.10007",
"0.07163 -0.02696 -0.09728",
"0.07443 -0.02447 -0.09388",
"0.07574 -0.02526 -0.09163",
"0.07675 -0.02580 -0.09045",
"0.08099 -0.02789 -0.08739",
"0.08619 -0.02996 -0.09657",
"0.08889 -0.02754 -0.10262",
"0.09002 -0.02398 -0.09795",
"0.08960 -0.02390 -0.09825",
"0.09106 -0.02758 -0.10087",
"0.09094 -0.02835 -0.09764",
"0.09395 -0.02697 -0.10033",
"0.09365 -0.02624 -0.10843",
"0.08725 -0.02385 -0.10815",
"0.09976 -0.02591 -0.10138",
"0.10253 -0.02728 -0.09869",
"0.09844 -0.02347 -0.10012",
"0.09527 -0.02734 -0.09800",
"0.08465 -0.04590 -0.09440",
"0.07761 -0.06061 -0.09097",
"0.08461 -0.06466 -0.08506",
"0.08965 -0.06455 -0.08135",
"0.08636 -0.06349 -0.08021",
"0.08610 -0.06300 -0.07610",
"0.08577 -0.06249 -0.07464",
"0.08396 -0.06269 -0.07212",
"0.08256 -0.06361 -0.07264",
"0.08170 -0.06433 -0.07362",
"0.07945 -0.06450 -0.07000",
"0.07757 -0.06306 -0.06864",
"0.07503 -0.06378 -0.06572",
"0.07543 -0.06126 -0.06330",
"0.07208 -0.06702 -0.06221",
"0.06145 -0.08900 -0.05885",
"0.05908 -0.09247 -0.05768",
"0.05973 -0.09226 -0.05578",
"0.05646 -0.09236 -0.05606",
"0.05316 -0.09337 -0.05674",
"0.05140 -0.09685 -0.05490",
"0.04904 -0.09732 -0.05597",
"0.04647 -0.09639 -0.05253",
"0.04305 -0.09569 -0.04821",
"0.03943 -0.09512 -0.04598",
"0.03785 -0.09395 -0.04235",
"0.03919 -0.09882 -0.03508",
"0.03546 -0.10232 -0.03014",
"0.03168 -0.10131 -0.02662",
"0.02800 -0.10088 -0.02472",
"0.02340 -0.10020 -0.02380",
"0.02165 -0.09821 -0.02165",
"0.01593 -0.10642 -0.01839",
"0.01105 -0.11020 -0.01676",
"0.01020 -0.10450 -0.01609",
"0.00825 -0.10460 -0.01505",
"0.00736 -0.10481 -0.01278",
"0.00445 -0.10074 -0.01253",
"0.00173 -0.09865 -0.01277",
"0.00175 -0.09726 -0.00996",
"-0.00065 -0.09730 -0.00695",
"-0.01398 -0.11862 -0.01602",
"-0.01887 -0.11895 -0.01852",
"-0.01579 -0.10922 -0.01556",
"-0.01714 -0.10842 -0.01560",
"-0.02070 -0.10375 -0.01645",
"-0.01861 -0.09688 -0.01564",
"-0.01876 -0.09180 -0.01496",
"-0.02049 -0.08752 -0.01636",
"-0.02161 -0.08679 -0.01673",
"-0.02805 -0.09760 -0.01460",
"-0.03696 -0.11685 -0.01193",
"-0.02570 -0.11732 -0.00971",
"-0.02088 -0.12939 -0.00680",
"-0.02789 -0.14695 -0.00423",
"-0.02530 -0.14080 -0.00440",
"-0.02506 -0.14148 -0.00484",
"-0.02404 -0.13892 -0.00489",
"-0.02309 -0.13624 -0.00497",
"-0.02353 -0.13711 -0.00451",
"-0.02405 -0.13715 -0.00315",
"-0.02257 -0.13439 -0.00407",
"-0.02241 -0.13411 -0.00399",
"-0.02204 -0.13223 -0.00379",
"-0.02087 -0.12917 -0.00423",
"-0.02220 -0.13125 -0.00275",
"-0.02751 -0.13239 -0.00071",
"-0.02670 -0.12647 -0.00304",
"-0.02380 -0.11802 -0.00778",
"-0.02089 -0.10983 -0.00928",
"-0.01365 -0.10025 -0.01030",
"-0.00930 -0.09214 -0.02236",
"-0.00464 -0.08424 -0.02937",
"-0.00485 -0.07584 -0.03215",
"-0.00988 -0.06800 -0.03842",
"-0.01615 -0.06340 -0.04380",
"-0.01979 -0.05816 -0.04285",
"-0.02964 -0.05387 -0.06238",
"-0.03402 -0.05252 -0.07637",
"-0.02748 -0.04970 -0.07102",
"-0.02250 -0.04615 -0.06870",
"-0.02034 -0.04734 -0.06945",
"-0.01815 -0.04215 -0.06961",
"-0.01334 -0.03568 -0.06863",
"-0.00733 -0.03003 -0.07037",
"-0.00120 -0.02265 -0.07035",
"0.00149 -0.01648 -0.06844",
"0.01155 -0.00955 -0.06298",
"0.02039 -0.00300 -0.05887",
"0.01892 -0.00463 -0.05724",
"0.01405 -0.02025 -0.05275",
"0.01201 -0.03664 -0.04552",
"0.01740 -0.03855 -0.04443",
"0.02257 -0.03398 -0.04432",
"0.02373 -0.03365 -0.04039",
"0.02835 -0.03265 -0.03705",
"0.05130 -0.03138 -0.02915",
"0.06847 -0.02695 -0.02738",
"0.07188 -0.02453 -0.02672",
"0.06791 -0.02824 -0.02423",
"0.06815 -0.03055 -0.02050",
"0.07807 -0.02800 -0.01131",
"0.07728 -0.03021 -0.00695",
"0.07695 -0.03127 -0.00767",
"0.07929 -0.03113 -0.00681",
"0.07915 -0.03730 0.00060",
"0.09515 -0.03769 0.01213",
"0.08402 -0.06914 0.02185",
"0.07034 -0.09045 0.03068",
"0.07444 -0.07863 0.03331",
"0.07385 -0.07610 0.02940",
"0.06497 -0.09844 0.03724",
"0.07678 -0.10429 0.04551",
"0.08311 -0.10075 0.04317",
"0.07094 -0.09897 0.03367",
"0.06420 -0.09380 0.02725",
"0.05733 -0.08910 0.02077",
"0.04207 -0.10550 0.01597",
"0.03079 -0.12120 0.01342",
"0.02621 -0.12426 0.01422",
"0.01430 -0.12645 0.01380",
"0.00074 -0.12861 0.00225",
"-0.00856 -0.12624 -0.00087",
"-0.02098 -0.13639 0.00375",
"-0.03744 -0.15876 0.00729",
"-0.04420 -0.17080 0.01055",
"-0.03996 -0.17169 0.01711",
"-0.03807 -0.17081 0.01719",
"-0.04315 -0.17438 0.01671",
"-0.04849 -0.17909 0.01933",
"-0.05040 -0.17820 0.01850",
"-0.04897 -0.17569 0.01688",
"-0.04990 -0.17453 0.01701",
"-0.05440 -0.17868 0.01801",
"-0.06009 -0.19083 0.02100",
"-0.06515 -0.20450 0.02495",
"-0.07025 -0.20919 0.02493",
"-0.07189 -0.20962 0.02359",
"-0.07102 -0.20952 0.02444",
"-0.07244 -0.21050 0.02364",
"-0.07630 -0.21155 0.02085",
"-0.07976 -0.21112 0.01930",
"-0.06654 -0.21381 0.02354",
"-0.05999 -0.21593 0.02592",
"-0.06605 -0.21694 0.02277",
"-0.06620 -0.22135 0.02225",
"-0.06701 -0.21945 0.02666",
"-0.07012 -0.22012 0.02192",
"-0.07355 -0.22256 0.01361",
"-0.07842 -0.22433 0.00737",
"-0.08480 -0.22495 -0.00450",
"-0.08783 -0.22261 -0.02464",
"-0.10800 -0.21809 -0.04500",
"-0.11537 -0.21577 -0.06597",
"-0.10397 -0.21311 -0.08303",
"-0.08885 -0.20810 -0.08735",
"-0.04449 -0.21359 -0.08117",
"-0.01398 -0.21294 -0.09390",
"0.03786 -0.20985 -0.11437",
"0.11450 -0.21752 -0.11842",
"0.17835 -0.21845 -0.11730",
"0.26721 -0.17221 -0.14376",
"0.39615 -0.13064 -0.13968",
"0.53599 -0.08635 -0.10450",
"0.67079 -0.02641 -0.05979",
"0.80815 0.03625 0.01070",
"0.94543 0.10865 0.13012",
"1.07397 0.18504 0.23112",
"1.20141 0.25261 0.35979",
"1.30296 0.30733 0.50339",
"1.31190 0.34050 0.58570",
"1.20133 0.32818 0.65020",
"1.07431 0.31140 0.69207",
"0.96714 0.29189 0.72356",
"0.84907 0.23604 0.74808",
"0.69895 0.14190 0.76360",
"0.51099 0.05801 0.78143",
"0.25809 -0.06494 0.77618",
"0.00593 -0.16854 0.74504",
"-0.17267 -0.20517 0.71109",
"-0.26600 -0.21990 0.66525",
"-0.29314 -0.24317 0.56780",
"-0.31047 -0.26715 0.50968",
"-0.32290 -0.29692 0.47349",
"-0.31832 -0.31972 0.41899",
"-0.29800 -0.32070 0.36455",
"-0.26077 -0.32728 0.32867",
"-0.24538 -0.32958 0.27793",
"-0.25004 -0.33331 0.22057",
"-0.24664 -0.33219 0.17162",
"-0.22400 -0.31345 0.12565",
"-0.20432 -0.30228 0.08565",
"-0.18310 -0.28964 0.05818",
"-0.16068 -0.26450 0.03507",
"-0.14858 -0.24644 0.02195",
"-0.14700 -0.24690 0.02590",
"-0.14010 -0.24033 0.02594",
"-0.14935 -0.25663 0.01360",
"-0.15683 -0.26926 0.00459",
"-0.15311 -0.26218 0.00311",
"-0.15245 -0.25990 -0.00140",
"-0.15054 -0.25719 -0.00731",
"-0.14959 -0.25611 -0.00826",
"-0.14958 -0.25437 -0.00792",
"-0.14896 -0.24963 -0.00985",
"-0.14840 -0.24615 -0.01145",
"-0.14859 -0.24570 -0.01051",
"-0.14833 -0.24311 -0.01235",
"-0.14909 -0.23978 -0.01696",
"-0.14681 -0.23540 -0.01933",
"-0.14620 -0.23725 -0.01595",
"-0.16501 -0.26166 -0.00323",
"-0.15079 -0.26619 0.00359",
"-0.13594 -0.25795 0.00425",
"-0.14057 -0.25511 0.00367",
"-0.13905 -0.25185 0.00205",
"-0.13876 -0.24784 0.00047",
"-0.13819 -0.24409 -0.00041",
"-0.13737 -0.24097 -0.00159",
"-0.13703 -0.23741 -0.00393",
"-0.13675 -0.23345 -0.00565",
"-0.13779 -0.23361 -0.00493",
"-0.13858 -0.23433 -0.00448",
"-0.13722 -0.23217 -0.00460",
"-0.13684 -0.23008 -0.00585",
"-0.13650 -0.23035 -0.00630",
"-0.12332 -0.23285 -0.00170",
"-0.12309 -0.22961 -0.00939",
"-0.12838 -0.22517 -0.01528",
"-0.12890 -0.22589 -0.01228",
"-0.13055 -0.22555 -0.01315",
"-0.13096 -0.22177 -0.01450",
"-0.13189 -0.22015 -0.01379",
"-0.13249 -0.22188 -0.01350",
"-0.13385 -0.21945 -0.01529",
"-0.13185 -0.21615 -0.01555",
"-0.12297 -0.21873 -0.01217",
"-0.12027 -0.21978 -0.01026",
"-0.12100 -0.21603 -0.01115",
"-0.12113 -0.21366 -0.01146",
"-0.12255 -0.21375 -0.01085",
"-0.12407 -0.21347 -0.01129",
"-0.12586 -0.21055 -0.01276",
"-0.12345 -0.20763 -0.01083",
"-0.12207 -0.20818 -0.00852",
"-0.12545 -0.20735 -0.00895",
"-0.12849 -0.20679 -0.00983",
"-0.12959 -0.20649 -0.00983",
"-0.13072 -0.20506 -0.00950",
"-0.13488 -0.20695 -0.00989",
"-0.14175 -0.21765 -0.00945",
"-0.14480 -0.22090 -0.00710",
"-0.12448 -0.22246 -0.00068",
"-0.11615 -0.23301 0.00424",
"-0.12653 -0.24208 0.00330",
"-0.12495 -0.23290 0.00040",
"-0.12697 -0.22858 -0.00126",
"-0.12813 -0.22061 -0.00883",
"-0.12814 -0.21429 -0.01280",
"-0.13008 -0.20970 -0.01201",
"-0.13015 -0.20215 -0.01385",
"-0.12708 -0.19813 -0.01401",
"-0.12678 -0.20089 -0.01428",
"-0.12782 -0.20256 -0.01388",
"-0.12713 -0.20103 -0.01231",
"-0.12445 -0.20075 -0.00935",
"-0.12608 -0.20417 -0.00912",
"-0.12335 -0.20478 -0.00687",
"-0.12053 -0.20425 -0.00604",
"-0.12174 -0.20394 -0.00507",
"-0.12330 -0.20170 -0.00155",
"-0.12059 -0.20124 -0.00226",
"-0.12036 -0.19613 0.00857",
"-0.12609 -0.19317 0.01354",
"-0.13285 -0.19142 0.00644",
"-0.13410 -0.18655 0.00430",
"-0.12644 -0.18899 0.00506",
"-0.12307 -0.18769 0.00167",
"-0.12300 -0.18530 0.00099",
"-0.12218 -0.18460 0.00190",
"-0.12170 -0.18135 -0.00070",
"-0.12258 -0.18043 -0.00082",
"-0.12127 -0.17729 -0.00026",
"-0.11932 -0.17507 0.00075",
"-0.11551 -0.17303 0.00161",
"-0.10900 -0.16935 0.00500",
"-0.10932 -0.17109 0.01324",
"-0.11041 -0.16749 0.00143",
"-0.10995 -0.16277 -0.00995",
"-0.10982 -0.16390 -0.00982",
"-0.10885 -0.16475 -0.01250",
"-0.10647 -0.16106 -0.01343",
"-0.10523 -0.15971 -0.01466",
"-0.10384 -0.15911 -0.01694",
"-0.10194 -0.15718 -0.01883",
"-0.09830 -0.15590 -0.01875",
"-0.09622 -0.15254 -0.01943",
"-0.09376 -0.15035 -0.01992",
"-0.09110 -0.15231 -0.01959",
"-0.08454 -0.15133 -0.01959",
"-0.07520 -0.14085 -0.02315",
"-0.07858 -0.13238 -0.02902",
"-0.07178 -0.12628 -0.03139",
"-0.05862 -0.11803 -0.03205",
"-0.04825 -0.10943 -0.03467",
"-0.03730 -0.10325 -0.03705",
"-0.02627 -0.09506 -0.03337",
"-0.01618 -0.09648 -0.03688",
"-0.00532 -0.09718 -0.04134",
"0.00191 -0.10046 -0.04121",
"0.00125 -0.11145 -0.04215",
"0.00478 -0.10851 -0.04793",
"0.01865 -0.10835 -0.04868",
"0.02679 -0.11089 -0.05167",
"0.02844 -0.11275 -0.06008",
"0.03375 -0.11475 -0.06715",
"0.03433 -0.11547 -0.07303",
"0.03786 -0.11681 -0.07860",
"0.04257 -0.11825 -0.08242",
"0.04856 -0.11777 -0.08419",
"0.05800 -0.11585 -0.08355",
"0.06303 -0.11667 -0.08530",
"0.06502 -0.11777 -0.08411",
"0.06560 -0.11728 -0.09137",
"0.06503 -0.11609 -0.10315",
"0.06560 -0.11345 -0.10360",
"0.07685 -0.11549 -0.10012",
"0.07776 -0.11570 -0.10176",
"0.07283 -0.11561 -0.10356",
"0.07118 -0.11613 -0.10326",
"0.06805 -0.11620 -0.10475",
"0.06355 -0.11631 -0.10512",
"0.08063 -0.11918 -0.09923",
"0.09409 -0.12203 -0.10114",
"0.09285 -0.12263 -0.10961",
"0.09555 -0.12240 -0.11160",
"0.09372 -0.12299 -0.11154",
"0.09222 -0.12442 -0.11270",
"0.09113 -0.12191 -0.11183",
"0.09116 -0.11946 -0.10990",
"0.08940 -0.11905 -0.11065",
"0.08275 -0.11857 -0.11201",
"0.09330 -0.11721 -0.10706",
"0.10619 -0.11784 -0.10122",
"0.10903 -0.11833 -0.09967",
"0.10945 -0.11930 -0.09850",
"0.10560 -0.13073 -0.09485",
"0.09499 -0.15909 -0.08847",
"0.08998 -0.17134 -0.08788",
"0.09283 -0.16417 -0.09023",
"0.09135 -0.16525 -0.08910",
"0.09009 -0.16224 -0.09115",
"0.08974 -0.16130 -0.08853",
"0.09160 -0.15886 -0.08565",
"0.09141 -0.15590 -0.08459",
"0.08945 -0.15530 -0.08175",
"0.08999 -0.15153 -0.07948",
"0.08742 -0.14926 -0.07803",
"0.08366 -0.14683 -0.07642",
"0.08199 -0.14321 -0.07531",
"0.07985 -0.14345 -0.07465",
"0.07609 -0.14586 -0.07414",
"0.06989 -0.14639 -0.07382",
"0.06722 -0.14636 -0.07096",
"0.06447 -0.14640 -0.06959",
"0.06230 -0.14700 -0.06895",
"0.07103 -0.14869 -0.06454",
"0.07290 -0.14876 -0.06239",
"0.06793 -0.14863 -0.06103",
"0.06492 -0.14870 -0.05874",
"0.06380 -0.14770 -0.05590",
"0.06119 -0.14755 -0.05383",
"0.05726 -0.14319 -0.05300",
"0.05044 -0.15268 -0.05075",
"0.04535 -0.16830 -0.04600",
"0.04605 -0.17050 -0.04200",
"0.04289 -0.17050 -0.04176",
"0.04177 -0.16993 -0.04119",
"0.03949 -0.17121 -0.04069",
"0.03539 -0.17391 -0.03946",
"0.03545 -0.17350 -0.03595",
"0.03564 -0.17366 -0.03640",
"0.03138 -0.17532 -0.03254",
"0.02647 -0.17723 -0.02717",
"0.02553 -0.17536 -0.02265",
"0.02385 -0.17380 -0.01825",
"0.02002 -0.17376 -0.01256",
"0.01917 -0.17396 -0.01136",
"0.01930 -0.17395 -0.01170",
"0.01930 -0.17395 -0.01170",
"0.01930 -0.17395 -0.01170",
"0.01930 -0.17395 -0.01170",
"0.01930 -0.17395 -0.01170",
"0.01930 -0.17395 -0.01170",
"0.01930 -0.17395 -0.01170",
"0.01930 -0.17395 -0.01170",
