# Coluna1	Coluna2	Coluna3
-0.04230	-0.05175	0.00480
0.00681	-0.00116	0.01746
0.07667	0.03863	0.03869
0.15774	0.08135	0.04833
0.23286	0.11671	0.04420
0.30215	0.13220	0.04060
0.38799	0.16011	0.02810
0.50292	0.22061	0.00460
0.62399	0.30153	-0.03292
0.74270	0.39767	-0.08095
0.86140	0.50800	-0.13590
0.95562	0.59899	-0.20158
1.02768	0.65588	-0.24288
1.02854	0.67864	-0.28136
0.98427	0.59579	-0.28451
0.94050	0.39575	-0.21450
0.81308	0.26514	-0.15451
0.67761	0.18278	-0.05478
0.51651	0.09046	0.10485
0.33792	-0.00515	0.23709
0.21385	-0.06915	0.26940
0.14037	-0.11618	0.28433
0.08915	-0.17617	0.29234
0.02827	-0.22621	0.26484
-0.02912	-0.24343	0.22223
-0.05525	-0.24485	0.19800
-0.07535	-0.25272	0.16600
-0.08267	-0.25100	0.14807
-0.08202	-0.24725	0.13946
-0.08282	-0.25069	0.12554
-0.08235	-0.25220	0.10755
-0.07813	-0.24924	0.09231
-0.07683	-0.24780	0.07674
-0.07900	-0.25064	0.06032
-0.07480	-0.24689	0.05077
-0.06060	-0.23140	0.04950
-0.05074	-0.21749	0.04406
-0.04175	-0.20519	0.04243
-0.03671	-0.19682	0.04517
-0.03500	-0.18901	0.04644
-0.03070	-0.18180	0.04635
-0.02523	-0.17096	0.04632
-0.02270	-0.16229	0.04519
-0.02204	-0.15526	0.04126
-0.02212	-0.14900	0.03719
-0.02380	-0.14480	0.03495
-0.02394	-0.14177	0.03180
-0.02313	-0.13881	0.02872
-0.01984	-0.13469	0.02960
-0.01600	-0.13132	0.02982
-0.01380	-0.12860	0.02730
-0.01384	-0.12880	0.02674
-0.01404	-0.12672	0.02512
-0.01262	-0.12182	0.02238
-0.01092	-0.12064	0.02056
-0.01040	-0.12060	0.01920
-0.00571	-0.11667	0.02078
-0.00386	-0.11627	0.01917
-0.00294	-0.11638	0.01737
-0.00177	-0.11218	0.01545
-0.00125	-0.10825	0.01150
0.00003	-0.10940	0.00759
0.00433	-0.10797	0.00666
0.00793	-0.10641	0.00648
0.00934	-0.10643	0.00222
0.01230	-0.10435	-0.00210
0.01274	-0.10147	-0.00538
0.01489	-0.09868	-0.00911
0.01747	-0.09598	-0.01279
0.01984	-0.09316	-0.01568
0.02340	-0.08920	-0.01880
0.02541	-0.08554	-0.02402
0.02881	-0.08214	-0.02856
0.03034	-0.08020	-0.03201
0.03032	-0.08081	-0.03607
0.03185	-0.08020	-0.04080
0.03268	-0.07833	-0.04546
0.03564	-0.07691	-0.04667
0.03584	-0.07960	-0.04841
0.03755	-0.07904	-0.05326
0.04875	-0.07065	-0.05785
0.05578	-0.06446	-0.06528
0.05976	-0.05768	-0.06717
0.06577	-0.05075	-0.07384
0.07255	-0.04533	-0.08449
0.07535	-0.04015	-0.08805
0.08100	-0.03399	-0.09507
0.08630	-0.02785	-0.10437
0.09132	-0.02190	-0.10997
0.09971	-0.01596	-0.11556
0.11015	-0.00965	-0.12550
0.11606	-0.00347	-0.13109
0.12740	0.00208	-0.13632
0.13645	0.00760	-0.14935
0.14446	0.01726	-0.16479
0.15705	0.03230	-0.17255
0.15700	0.03529	-0.17881
0.16843	0.03649	-0.18506
0.18125	0.04020	-0.19341
0.18897	0.04840	-0.20743
0.20235	0.05500	-0.22245
0.21208	0.05467	-0.23498
0.23181	0.07918	-0.24722
0.24614	0.09579	-0.25870
0.25281	0.09611	-0.27127
0.26530	0.11005	-0.28725
0.27055	0.11970	-0.30095
0.27822	0.12904	-0.31071
0.28653	0.13674	-0.31517
0.29543	0.14295	-0.32292
0.30680	0.15185	-0.34300
0.30957	0.15640	-0.36275
0.31515	0.16717	-0.37295
0.32716	0.18585	-0.38424
0.34110	0.20561	-0.39772
0.35080	0.21985	-0.40475
0.35549	0.22831	-0.40763
0.35900	0.23103	-0.41717
0.36141	0.23547	-0.42083
0.36403	0.23906	-0.41619
0.36635	0.24000	-0.41630
0.36103	0.24444	-0.41394
0.35688	0.24890	-0.41479
0.34541	0.24626	-0.41009
0.32944	0.23913	-0.40129
0.32260	0.23530	-0.39305
0.31278	0.23070	-0.37603
0.30189	0.22286	-0.36113
0.28737	0.21537	-0.34689
0.26945	0.21233	-0.33288
0.25200	0.20600	-0.32065
0.23199	0.19254	-0.30029
0.21213	0.17665	-0.27920
0.19305	0.16404	-0.25961
0.17392	0.15437	-0.24213
0.15620	0.14585	-0.22545
0.13480	0.13105	-0.20609
0.11509	0.11613	-0.18614
0.09846	0.09769	-0.16650
0.08235	0.07656	-0.14770
0.06800	0.06085	-0.12945
0.05388	0.04761	-0.11157
0.04127	0.03495	-0.09514
0.03013	0.02205	-0.07930
0.01964	0.00940	-0.06370
0.01215	-0.00050	-0.05045
0.00508	-0.00885	-0.04278
-0.00118	-0.01125	-0.03280
-0.00750	-0.01562	-0.02408
-0.01387	-0.02154	-0.01756
-0.01920	-0.02530	-0.00965
-0.02728	-0.04119	-0.00530
-0.02974	-0.04599	0.00436
-0.03219	-0.04544	0.01072
-0.03637	-0.05001	0.01142
-0.03710	-0.05355	0.01435
-0.03922	-0.05367	0.01695
-0.03966	-0.05398	0.02040
-0.04194	-0.05378	0.02204
-0.04370	-0.05376	0.02326
-0.04225	-0.05430	0.02745
-0.04372	-0.05492	0.02892
-0.04476	-0.05529	0.02942
-0.04643	-0.05423	0.03088
-0.04766	-0.05679	0.03272
-0.04695	-0.06880	0.03595
-0.05148	-0.07357	0.03694
-0.05308	-0.07353	0.03679
-0.05362	-0.07394	0.03726
-0.05500	-0.07445	0.03780
-0.05500	-0.07445	0.03780
-0.05504	-0.07493	0.04032
-0.05492	-0.07511	0.04138
-0.05518	-0.07499	0.04052
-0.05523	-0.07597	0.04150
-0.05595	-0.07965	0.04370
-0.05595	-0.07965	0.04370
-0.05605	-0.07944	0.04369
-0.05563	-0.07947	0.04540
-0.05577	-0.07969	0.04664
-0.05785	-0.07965	0.04700
-0.05754	-0.08035	0.04589
-0.05660	-0.07992	0.04732
-0.05727	-0.08262	0.04854
-0.05807	-0.08526	0.04933
-0.05755	-0.08550	0.05105
-0.05755	-0.08550	0.05105
-0.05768	-0.08544	0.05062
-0.05729	-0.08562	0.05191
-0.05676	-0.08574	0.05300
-0.05620	-0.08550	0.05220
-0.05624	-0.08570	0.05164
-0.05579	-0.08686	0.05302
-0.05561	-0.08425	0.05362
-0.05590	-0.08142	0.05244
-0.05570	-0.08150	0.05220
-0.05462	-0.08150	0.05312
-0.05342	-0.07892	0.05299
-0.05242	-0.07727	0.05286
-0.05280	-0.07720	0.05275
-0.05280	-0.07720	0.05275
-0.05280	-0.07720	0.05275
-0.05201	-0.07468	0.05259
-0.05066	-0.07192	0.05163
-0.05043	-0.07271	0.05144
-0.04995	-0.07315	0.05260
-0.04995	-0.07315	0.05260
-0.04891	-0.07076	0.05207
-0.04831	-0.06761	0.05222
-0.04881	-0.06784	0.05265
-0.04825	-0.06760	0.05185
-0.04701	-0.06416	0.05137
-0.04683	-0.06324	0.05082
-0.04644	-0.06342	0.05211
-0.04605	-0.06360	0.05340
-0.04605	-0.06360	0.05340
-0.04481	-0.06016	0.05292
-0.04470	-0.05954	0.05355
-0.04562	-0.05944	0.05464
-0.04540	-0.05925	0.05480
-0.04540	-0.05925	0.05480
-0.04816	-0.06241	0.05484
-0.04897	-0.06228	0.05537
-0.04997	-0.06226	0.05659
-0.05129	-0.06311	0.05690
-0.05185	-0.06335	0.05770
-0.05549	-0.06339	0.05658
-0.05640	-0.06340	0.05630
-0.05748	-0.06366	0.05568
-0.05910	-0.06405	0.05475
-0.05910	-0.06405	0.05475
-0.06274	-0.06409	0.05363
-0.06368	-0.06446	0.05524
-0.06371	-0.06482	0.05713
-0.06370	-0.06470	0.05650
-0.06370	-0.06470	0.05650
-0.06394	-0.06402	0.05694
-0.06514	-0.06364	0.05672
-0.06650	-0.06305	0.05673
-0.06664	-0.06259	0.05761
-0.06740	-0.06275	0.05865
-0.06752	-0.06215	0.06129
-0.06884	-0.06173	0.06180
-0.07028	-0.06100	0.06221
-0.07073	-0.06043	0.06308
-0.07285	-0.06075	0.06240
-0.07281	-0.06055	0.06296
-0.07287	-0.05957	0.06287
-0.07264	-0.06226	0.06384
-0.07240	-0.06490	0.06495
-0.07240	-0.06490	0.06495
-0.07244	-0.06538	0.06747
-0.07245	-0.06550	0.06810
-0.07245	-0.06550	0.06810
-0.07245	-0.06550	0.06810
-0.07245	-0.06550	0.06810
-0.07245	-0.06550	0.06810
-0.07263	-0.06499	0.06843
-0.07281	-0.06448	0.06876
-0.07306	-0.06551	0.06877
-0.07430	-0.06895	0.06925
-0.07430	-0.06895	0.06925
-0.07502	-0.06856	0.06832
-0.06966	-0.06929	0.06915
-0.06359	-0.07053	0.07154
-0.06535	-0.07035	0.07260
-0.06535	-0.07035	0.07260
-0.06535	-0.07035	0.07260
-0.06535	-0.07035	0.07260
-0.06535	-0.07035	0.07260
-0.06535	-0.07035	0.07260
-0.06531	-0.07095	0.07240
-0.06530	-0.07110	0.07235
-0.06530	-0.07110	0.07235
-0.06530	-0.07110	0.07235
-0.06530	-0.07110	0.07235
-0.06682	-0.07082	0.07191
-0.06748	-0.07063	0.07155
-0.06724	-0.07075	0.07302
-0.06680	-0.07095	0.07425
-0.06680	-0.07095	0.07425
-0.07112	-0.07199	0.07177
-0.07377	-0.07266	0.07016
-0.07608	-0.07312	0.06910
-0.07766	-0.07368	0.06867
-0.07690	-0.07460	0.06995
-0.07690	-0.07460	0.06995
-0.07804	-0.07439	0.06962
-0.07918	-0.07418	0.06929
-0.07866	-0.07419	0.06920
-0.07810	-0.07395	0.06840
-0.07810	-0.07395	0.06840
-0.07771	-0.07413	0.06969
-0.07732	-0.07431	0.07098
-0.07750	-0.07423	0.07061
-0.07770	-0.07415	0.07085
-0.07770	-0.07415	0.07085
-0.07932	-0.07558	0.06961
-0.08018	-0.07299	0.06983
-0.07812	-0.07002	0.07151
-0.07850	-0.06995	0.07140
-0.08002	-0.06967	0.07096
-0.08041	-0.06965	0.07071
-0.08038	-0.06950	0.07113
-0.08035	-0.06935	0.07155
-0.08035	-0.06935	0.07155
-0.08003	-0.06951	0.07351
-0.08013	-0.06904	0.07433
-0.08031	-0.06853	0.07466
-0.08025	-0.06870	0.07455
-0.08025	-0.06870	0.07455
-0.08241	-0.06922	0.07331
-0.08202	-0.06677	0.07264
-0.08109	-0.06419	0.07228
-0.08178	-0.06498	0.07229
-0.08330	-0.06470	0.07185
-0.08354	-0.06402	0.07229
-0.08564	-0.06442	0.07207
-0.08754	-0.06493	0.07154
-0.08706	-0.06490	0.07254
-0.08730	-0.06530	0.07530
-0.08744	-0.06536	0.07550
-0.08742	-0.06525	0.07439
-0.08552	-0.06474	0.07492
-0.08390	-0.06435	0.07585
-0.08390	-0.06435	0.07585
-0.08242	-0.06159	0.07493
-0.08157	-0.06089	0.07399
-0.08141	-0.05851	0.07315
-0.08117	-0.05506	0.07252
-0.07870	-0.05615	0.07355
-0.07867	-0.05728	0.07322
-0.07740	-0.05364	0.07189
-0.07659	-0.05174	0.06985
-0.07666	-0.05112	0.06738
-0.07550	-0.04820	0.06450
-0.07606	-0.04816	0.06222
-0.07534	-0.04844	0.06140
-0.07259	-0.04550	0.05948
-0.07214	-0.04324	0.05588
-0.07245	-0.04330	0.05330
-0.07110	-0.03979	0.05091
-0.07443	-0.03751	0.04776
-0.07631	-0.03851	0.04500
-0.07651	-0.03611	0.04195
-0.07735	-0.03235	0.03875
-0.08013	-0.03178	0.03578
-0.08374	-0.03185	0.03437
-0.08517	-0.02850	0.03139
-0.08295	-0.02121	0.02735
-0.07955	-0.01445	0.02455
-0.07534	-0.00691	0.01862
-0.07372	0.00113	0.00860
-0.07054	0.00797	0.00418
-0.06467	0.01440	0.00605
-0.06165	0.02115	0.00570
-0.05947	0.02350	0.00459
-0.05607	0.02718	0.00634
-0.05609	0.02895	0.00734
-0.05344	0.02831	0.00654
-0.04655	0.03295	0.00735
-0.05586	0.03784	0.00737
-0.05746	0.03697	0.01044
-0.05012	0.03942	0.01453
-0.04909	0.04300	0.01554
-0.05380	0.04760	0.01380
-0.04829	0.07833	0.00863
-0.04400	0.09775	0.00699
-0.04303	0.09599	0.00708
-0.04256	0.08841	0.00579
-0.04200	0.08125	0.00455
-0.04416	0.07413	0.00363
-0.04456	0.06689	0.00294
-0.04470	0.05827	0.00234
-0.04415	0.05291	0.00182
-0.04295	0.04920	0.00495
-0.04615	0.03826	0.01691
-0.04784	0.03025	0.02725
-0.05020	0.02400	0.03367
-0.05240	0.01574	0.03818
-0.05340	0.00810	0.04210
-0.05418	0.00152	0.04642
-0.05421	-0.00396	0.04698
-0.05706	-0.01237	0.05267
-0.06095	-0.02098	0.06069
-0.06075	-0.02880	0.06295
-0.06442	-0.03654	0.06369
-0.06963	-0.04599	0.06847
-0.07361	-0.05358	0.07188
-0.07599	-0.06049	0.07507
-0.07810	-0.06640	0.08145
-0.08464	-0.06794	0.07954
-0.08713	-0.06641	0.07882
-0.08262	-0.07087	0.08217
-0.07901	-0.07993	0.08415
-0.08240	-0.08210	0.08350
-0.08306	-0.08155	0.08327
-0.08250	-0.08067	0.08315
-0.08326	-0.08321	0.08361
-0.08406	-0.08595	0.08351
-0.08410	-0.08615	0.08295
-0.08410	-0.08615	0.08295
-0.08521	-0.08839	0.08377
-0.08613	-0.09025	0.08137
-0.08842	-0.08960	0.07372
-0.09700	-0.09125	0.06405
-0.09987	-0.09179	0.05552
-0.10054	-0.09438	0.05118
-0.10588	-0.09737	0.04032
-0.11579	-0.09983	0.02269
-0.12350	-0.10270	0.00715
-0.12714	-0.10214	-0.00741
-0.13793	-0.09498	-0.01561
-0.14338	-0.09238	-0.01501
-0.13700	-0.08120	-0.01226
-0.12270	-0.04835	-0.01255
-0.09422	-0.02335	-0.01076
-0.05815	0.02871	-0.00513
-0.00227	0.09010	0.00555
0.08195	0.13424	0.02420
0.17505	0.16870	0.03980
0.25094	0.19227	0.03192
0.32961	0.21985	0.02196
0.43878	0.26720	0.00684
0.57066	0.33400	-0.02532
0.69575	0.42215	-0.07330
0.81595	0.53635	-0.12487
0.92195	0.64997	-0.18835
1.01319	0.73126	-0.24721
1.08165	0.78023	-0.27528
1.09825	0.76255	-0.27230
1.03751	0.58628	-0.25963
0.92910	0.44007	-0.20949
0.79352	0.33626	-0.12677
0.62933	0.21707	-0.00161
0.44405	0.09890	0.15590
0.27879	0.00506	0.25455
0.17030	-0.07067	0.29226
0.10044	-0.12653	0.29960
0.03286	-0.17042	0.28869
-0.03370	-0.21255	0.26250
-0.06991	-0.23472	0.23597
-0.09369	-0.23471	0.19931
-0.10768	-0.22892	0.17013
-0.11568	-0.22769	0.15115
-0.12570	-0.23145	0.12635
-0.12929	-0.23610	0.10679
-0.12031	-0.22069	0.09276
-0.10552	-0.19558	0.07728
-0.08763	-0.18034	0.06180
-0.06840	-0.17460	0.05155
-0.06452	-0.16372	0.04261
-0.06203	-0.15166	0.03554
-0.05909	-0.14110	0.02988
-0.05605	-0.13013	0.02559
-0.05300	-0.11860	0.02205
-0.05511	-0.11154	0.01803
-0.05688	-0.10518	0.01631
-0.05609	-0.09829	0.01436
-0.05564	-0.09125	0.00938
-0.05515	-0.08470	0.00535
-0.05319	-0.07794	0.00375
-0.04986	-0.07335	0.00322
-0.04607	-0.06988	-0.00002
-0.04383	-0.06699	-0.00228
-0.04155	-0.06375	-0.00240
-0.04043	-0.06311	-0.00352
-0.03874	-0.06106	-0.00532
-0.03691	-0.05654	-0.00667
-0.03409	-0.05533	-0.00703
-0.03125	-0.05505	-0.00795
-0.02949	-0.05157	-0.00979
-0.02920	-0.04785	-0.01155
-0.02841	-0.04695	-0.01407
-0.02620	-0.04559	-0.01591
-0.02500	-0.04235	-0.01695
-0.02428	-0.04239	-0.01855
-0.02104	-0.04043	-0.01942
-0.01902	-0.03903	-0.02166
-0.01934	-0.03868	-0.02587
-0.01700	-0.03615	-0.02860
-0.01532	-0.03691	-0.03224
-0.01438	-0.03507	-0.03599
-0.01349	-0.03378	-0.03879
-0.01187	-0.03354	-0.04177
-0.00930	-0.03140	-0.04595
-0.00798	-0.03231	-0.04891
-0.00825	-0.03073	-0.05227
-0.00753	-0.02959	-0.05624
-0.00529	-0.02902	-0.05798
-0.00110	-0.02555	-0.05860
0.00395	-0.02567	-0.06650
0.00882	-0.01975	-0.07371
0.01250	-0.01437	-0.07631
0.01693	-0.01072	-0.08102
0.02350	-0.00610	-0.08655
0.02601	-0.00279	-0.08461
0.03425	0.00274	-0.08820
0.04327	0.00749	-0.09579
0.04857	0.01114	-0.09869
0.05430	0.01690	-0.10360
0.05768	0.02060	-0.12276
0.06183	0.02379	-0.13267
0.06731	0.02617	-0.13440
0.07258	0.02759	-0.14058
0.08135	0.03100	-0.14810
0.09229	0.04597	-0.15072
0.09843	0.04736	-0.15806
0.10788	0.05250	-0.16953
0.12182	0.06347	-0.18051
0.13160	0.06430	-0.19165
0.14208	0.07903	-0.20264
0.15620	0.09568	-0.21402
0.16947	0.09797	-0.21738
0.17943	0.09093	-0.22168
0.18780	0.09195	-0.23830
0.19596	0.10053	-0.24853
0.20200	0.10799	-0.25872
0.21062	0.13215	-0.27347
0.22156	0.15647	-0.28627
0.23460	0.15705	-0.29920
0.26163	0.17300	-0.31847
0.26508	0.18218	-0.33257
0.26902	0.18769	-0.34268
0.28436	0.19294	-0.35462
0.29120	0.19520	-0.36760
0.30038	0.21046	-0.38024
0.31065	0.22055	-0.38508
0.31578	0.22377	-0.39988
0.32343	0.23545	-0.41886
0.33955	0.25685	-0.42310
0.35562	0.27693	-0.43348
0.36288	0.29123	-0.44389
0.37599	0.29633	-0.44440
0.38609	0.29895	-0.44767
0.37650	0.30750	-0.46050
0.37419	0.31100	-0.45679
0.37663	0.31132	-0.45068
0.37221	0.31391	-0.44829
0.36356	0.31819	-0.44629
0.35790	0.31945	-0.44215
0.35254	0.32307	-0.43883
0.34811	0.32922	-0.43107
0.33535	0.32012	-0.41500
0.31555	0.29894	-0.39446
0.29910	0.28635	-0.37615
0.28261	0.27201	-0.35802
0.26340	0.25801	-0.34296
0.24234	0.24355	-0.32560
0.22201	0.22910	-0.30254
0.20350	0.21750	-0.28165
0.18475	0.20307	-0.26322
0.16922	0.18973	-0.24518
0.15342	0.17349	-0.22488
0.13388	0.15208	-0.20373
0.11165	0.13400	-0.18545
0.09198	0.12149	-0.16923
0.07759	0.10839	-0.15304
0.06508	0.09699	-0.13959
0.05438	0.08811	-0.12745
0.04630	0.07935	-0.11385
0.03493	0.06961	-0.10255
0.02325	0.05954	-0.09214
0.01355	0.04973	-0.08085
0.00342	0.04028	-0.06924
-0.00705	0.03285	-0.06050
-0.01503	0.02232	-0.05345
-0.02019	0.01397	-0.04635
-0.02584	0.00482	-0.03891
-0.03287	-0.00541	-0.03209
-0.03645	-0.01280	-0.02450
-0.03729	-0.01904	-0.01686
-0.03802	-0.02257	-0.01124
-0.04165	-0.02622	-0.00689
-0.04597	-0.03025	-0.00238
-0.04945	-0.03300	0.00055
-0.05089	-0.03556	0.00203
-0.05392	-0.03896	0.00243
-0.05622	-0.04083	0.00242
-0.05557	-0.04059	0.00364
-0.05525	-0.04075	0.00560
-0.05521	-0.04055	0.00616
-0.05535	-0.04044	0.00648
-0.05550	-0.04038	0.00666
-0.05538	-0.04029	0.00714
-0.05510	-0.03985	0.00930
-0.05560	-0.03892	0.01009
-0.05522	-0.03942	0.00950
-0.05579	-0.03990	0.01013
-0.05655	-0.03972	0.01114
-0.05635	-0.03980	0.01090
-0.05635	-0.03980	0.01090
-0.05648	-0.03974	0.01047
-0.05609	-0.03992	0.01176
-0.05569	-0.04005	0.01319
-0.05565	-0.03985	0.01375
-0.05565	-0.03985	0.01375
-0.05578	-0.03979	0.01332
-0.05539	-0.03997	0.01461
-0.05500	-0.04015	0.01590
-0.05500	-0.04015	0.01590
-0.05476	-0.04083	0.01546
-0.05584	-0.04079	0.01502
-0.05698	-0.04058	0.01469
-0.05660	-0.04065	0.01480
-0.05660	-0.04065	0.01480
-0.05660	-0.04065	0.01480
-0.05661	-0.04070	0.01466
-0.05696	-0.04048	0.01497
-0.05579	-0.04054	0.01572
-0.05085	-0.04145	0.01715
-0.04743	-0.04208	0.01814
-0.04819	-0.04194	0.01792
-0.04933	-0.04173	0.01759
-0.04887	-0.04157	0.01761
-0.04855	-0.04065	0.01725
-0.04865	-0.04046	0.01674
-0.05050	-0.03932	0.02072
-0.05527	-0.04812	0.02432
-0.05833	-0.05873	0.02453
-0.05685	-0.05295	0.02445
-0.05685	-0.05295	0.02445
-0.05865	-0.05283	0.02385
-0.06045	-0.05271	0.02325
-0.05931	-0.05262	0.02376
-0.05715	-0.05210	0.02500
-0.05795	-0.04814	0.02236
-0.05815	-0.04715	0.02170
-0.05815	-0.04715	0.02170
-0.05815	-0.04715	0.02170
-0.05815	-0.04715	0.02170
-0.05815	-0.04715	0.02170
-0.05846	-0.04801	0.02182
-0.05753	-0.04543	0.02146
-0.05660	-0.04285	0.02110
-0.05660	-0.04285	0.02110
-0.05680	-0.04197	0.02210
-0.05685	-0.04175	0.02235
-0.05723	-0.04168	0.02224
-0.05659	-0.04087	0.02229
-0.05555	-0.03735	0.02205
-0.05593	-0.03728	0.02194
-0.05289	-0.03784	0.02282
-0.05213	-0.03798	0.02304
-0.05403	-0.03763	0.02249
-0.05365	-0.03770	0.02260
-0.05403	-0.03793	0.02375
-0.05553	-0.04048	0.02426
-0.05646	-0.04306	0.02462
-0.05621	-0.04203	0.02461
-0.05645	-0.04135	0.02505
-0.05637	-0.04095	0.02617
-0.05822	-0.04097	0.02569
-0.06010	-0.04141	0.02648
-0.06179	-0.04198	0.02689
-0.06395	-0.04250	0.02565
-0.06539	-0.04586	0.02637
-0.06574	-0.04685	0.02650
-0.06582	-0.04638	0.02671
-0.06597	-0.04589	0.02759
-0.06565	-0.04605	0.02955
-0.06565	-0.04605	0.02955
-0.06560	-0.04607	0.02949
-0.06575	-0.04601	0.02967
-0.06621	-0.04681	0.02997
-0.06745	-0.05025	0.03045
-0.06849	-0.05033	0.03317
-0.06922	-0.05005	0.03687
-0.06926	-0.04952	0.03943
-0.06925	-0.04950	0.03925
-0.06925	-0.04950	0.03925
-0.06925	-0.04950	0.03925
-0.06938	-0.04944	0.03882
-0.06899	-0.04962	0.04011
-0.06843	-0.04900	0.04148
-0.06775	-0.04580	0.04180
-0.06775	-0.04580	0.04180
-0.06775	-0.04580	0.04180
-0.06775	-0.04580	0.04180
-0.06775	-0.04580	0.04180
-0.06775	-0.04580	0.04180
-0.06719	-0.04584	0.04408
-0.06905	-0.04622	0.04488
-0.07084	-0.04696	0.04527
-0.06981	-0.04715	0.04611
-0.06980	-0.04710	0.04625
-0.06928	-0.04734	0.04797
-0.06946	-0.04826	0.04852
-0.06827	-0.04580	0.04902
-0.06696	-0.04345	0.04981
-0.06700	-0.04365	0.04925
-0.06648	-0.04389	0.05097
-0.06635	-0.04395	0.05140
-0.06609	-0.04407	0.05226
-0.06570	-0.04425	0.05355
-0.06570	-0.04425	0.05355
-0.06570	-0.04425	0.05355
-0.06545	-0.04443	0.05336
-0.06692	-0.04425	0.05297
-0.06810	-0.04397	0.05284
-0.06790	-0.04405	0.05260
-0.06790	-0.04405	0.05260
-0.06882	-0.04658	0.05310
-0.06978	-0.04931	0.05304
-0.06950	-0.04860	0.05250
-0.06950	-0.04860	0.05250
-0.06950	-0.04860	0.05250
-0.06911	-0.04878	0.05379
-0.06872	-0.04896	0.05508
-0.06831	-0.04877	0.05496
-0.06615	-0.04825	0.05620
-0.06615	-0.04825	0.05620
-0.06729	-0.04804	0.05587
-0.06843	-0.04783	0.05554
-0.06805	-0.04790	0.05565
-0.06805	-0.04790	0.05565
-0.06805	-0.04790	0.05565
-0.06847	-0.04808	0.05625
-0.06889	-0.04826	0.05685
-0.06844	-0.04734	0.05653
-0.06720	-0.04390	0.05605
-0.06772	-0.04366	0.05433
-0.06767	-0.04411	0.05357
-0.06749	-0.04462	0.05324
-0.06755	-0.04445	0.05335
-0.06755	-0.04445	0.05335
-0.06755	-0.04445	0.05335
-0.06755	-0.04445	0.05335
-0.06755	-0.04445	0.05335
-0.06755	-0.04445	0.05335
-0.06755	-0.04445	0.05335
-0.06693	-0.04520	0.05302
-0.06832	-0.04602	0.05270
-0.06359	-0.04414	0.05344
-0.05772	-0.04247	0.05451
-0.06000	-0.04205	0.05385
-0.06038	-0.04198	0.05374
-0.05837	-0.04161	0.05492
-0.05678	-0.04137	0.05543
-0.05729	-0.04182	0.05459
-0.05705	-0.04250	0.05415
-0.05857	-0.04222	0.05371
-0.05895	-0.04215	0.05360
-0.05895	-0.04215	0.05360
-0.05881	-0.04209	0.05340
-0.05825	-0.04185	0.05260
-0.05794	-0.04099	0.05248
-0.05991	-0.04700	0.05306
-0.06268	-0.05305	0.05468
-0.06479	-0.05438	0.05624
-0.06545	-0.05345	0.05775
-0.06530	-0.05351	0.05757
-0.06515	-0.05357	0.05739
-0.06520	-0.05355	0.05745
-0.06558	-0.05348	0.05734
-0.06710	-0.05320	0.05690
-0.06710	-0.05320	0.05690
-0.06718	-0.05343	0.05699
-0.06694	-0.05274	0.05672
-0.06670	-0.05205	0.05645
-0.06670	-0.05205	0.05645
-0.06632	-0.05212	0.05656
-0.06898	-0.05163	0.05579
-0.06518	-0.05233	0.05689
-0.05921	-0.05367	0.05839
-0.06345	-0.05385	0.05625
-0.06387	-0.05398	0.05558
-0.06368	-0.05359	0.05588
-0.06386	-0.05308	0.05621
-0.06380	-0.05325	0.05610
-0.06380	-0.05325	0.05610
-0.06536	-0.05317	0.05510
-0.06533	-0.05297	0.05425
-0.06491	-0.05279	0.05365
-0.06505	-0.05285	0.05385
-0.06505	-0.05285	0.05385
-0.06437	-0.04937	0.05109
-0.06407	-0.04899	0.05013
-0.06414	-0.04758	0.04830
-0.06478	-0.04444	0.04582
-0.06465	-0.04450	0.04625
-0.06328	-0.04112	0.04620
-0.06319	-0.04074	0.04343
-0.06253	-0.03962	0.04140
-0.06221	-0.03667	0.04081
-0.06425	-0.03615	0.03865
-0.06281	-0.03279	0.03793
-0.06241	-0.03199	0.03787
-0.06203	-0.03075	0.03559
-0.06130	-0.02845	0.03375
-0.06130	-0.02845	0.03375
-0.05980	-0.02500	0.03118
-0.05935	-0.02347	0.03033
-0.05834	-0.02057	0.03103
-0.05385	-0.01326	0.02808
-0.04795	-0.00690	0.02270
-0.04603	-0.00046	0.01926
-0.04184	0.00632	0.01759
-0.03585	0.01281	0.01611
-0.03214	0.01833	0.01387
-0.02930	0.02185	0.01215
-0.02706	0.02477	0.01019
-0.02415	0.02540	0.00924
-0.02209	0.02482	0.00816
-0.02308	0.02528	0.00719
-0.02540	0.02660	0.00760
-0.02433	0.03222	0.01357
-0.02333	0.03523	0.02314
-0.02301	0.04458	0.02635
-0.02188	0.06038	0.02333
-0.02000	0.07110	0.02015
-0.01911	0.08308	0.01593
-0.01669	0.08698	0.01481
-0.01285	0.09079	0.01362
-0.01068	0.09142	0.01298
-0.01195	0.08340	0.01450
-0.01091	0.07984	0.01438
-0.00957	0.07726	0.01412
-0.00998	0.07098	0.01508
-0.01034	0.06468	0.01598
-0.00950	0.06120	0.01610
-0.00809	0.05742	0.02006
-0.00732	0.05085	0.03574
-0.01011	0.04451	0.04764
-0.01360	0.03834	0.04890
-0.01510	0.03060	0.05075
-0.01657	0.02320	0.05460
-0.02393	0.01419	0.05303
-0.03114	0.00689	0.05208
-0.03469	0.00112	0.05552
-0.03935	-0.00585	0.05805
-0.04546	-0.01160	0.05783
-0.05520	-0.01929	0.05936
-0.06339	-0.02667	0.06405
-0.06717	-0.03221	0.06785
-0.06980	-0.03775	0.06995
-0.07145	-0.04345	0.07508
-0.07278	-0.05056	0.07728
-0.07311	-0.05707	0.07679
-0.07373	-0.05863	0.07599
-0.07525	-0.05835	0.07555
-0.07747	-0.06216	0.07616
-0.07795	-0.06307	0.07502
-0.07894	-0.06451	0.07425
-0.07976	-0.06725	0.07476
-0.07980	-0.06745	0.07420
-0.08032	-0.06721	0.07248
-0.08097	-0.06729	0.07277
-0.08105	-0.06726	0.07319
-0.08050	-0.06788	0.07268
-0.08165	-0.07125	0.07125
-0.08774	-0.07094	0.06110
-0.09127	-0.07159	0.05301
-0.09100	-0.07166	0.04441
-0.09622	-0.07091	0.02833
-0.10535	-0.07145	0.01120
-0.10275	-0.06965	0.00306
-0.10487	-0.06738	-0.00181
-0.10849	-0.06469	-0.01283
-0.11219	-0.06720	-0.01913
-0.11760	-0.06710	-0.01755
-0.10646	-0.02866	-0.03507
-0.07231	0.01780	-0.02099
-0.02744	0.06420	-0.00189
0.03468	0.10954	0.00474
0.12290	0.14940	0.02005
0.20850	0.19653	0.02782
0.28018	0.22308	0.02713
0.36271	0.25051	0.00988
0.46845	0.30049	-0.01647
0.59570	0.37465	-0.04445
0.75357	0.47446	-0.08718
0.87278	0.57467	-0.14265
0.97962	0.66939	-0.20952
1.08750	0.76009	-0.25803
1.13930	0.81265	-0.27680
1.10415	0.75364	-0.31052
1.05326	0.59693	-0.25561
0.94789	0.44707	-0.17439
0.79163	0.33713	-0.09161
0.63625	0.21715	0.04995
0.44037	0.09672	0.18702
0.26853	0.01263	0.26771
0.16611	-0.06404	0.31009
0.10419	-0.13418	0.32415
0.03495	-0.17240	0.30475
-0.02709	-0.20702	0.28060
-0.06323	-0.20657	0.25150
-0.08874	-0.19743	0.22021
-0.10483	-0.19680	0.19356
-0.10440	-0.19345	0.17090
-0.10610	-0.19627	0.14883
-0.09964	-0.19332	0.12884
-0.09037	-0.18981	0.11309
-0.08279	-0.18744	0.09911
-0.06975	-0.17565	0.08510
-0.05644	-0.16465	0.07492
-0.05158	-0.15083	0.06147
-0.04802	-0.13785	0.04806
-0.04293	-0.12677	0.04085
-0.04175	-0.11540	0.03745
-0.04149	-0.10512	0.03353
-0.04006	-0.09457	0.02923
-0.03835	-0.08418	0.02481
-0.03647	-0.07384	0.02055
-0.03470	-0.06690	0.01815
-0.03598	-0.06366	0.01467
-0.03639	-0.06059	0.01131
-0.03500	-0.05732	0.00975
-0.03543	-0.05372	0.00754
-0.03695	-0.04980	0.00450
-0.03755	-0.04672	0.00086
-0.03564	-0.04359	-0.00175
-0.03418	-0.03982	-0.00305
-0.03529	-0.03729	-0.00471
-0.03535	-0.03735	-0.00795
-0.03269	-0.03412	-0.01010
-0.03222	-0.03280	-0.01105
-0.03474	-0.03177	-0.01456
-0.02974	-0.02790	-0.01667
-0.01790	-0.02520	-0.01485
-0.02000	-0.02472	-0.01643
-0.02332	-0.02147	-0.02068
-0.01248	-0.02074	-0.01884
0.00005	-0.02209	-0.01734
-0.00020	-0.01790	-0.02610
0.00163	-0.01527	-0.03128
0.00334	-0.01418	-0.03597
0.00675	-0.01363	-0.03921
0.01053	-0.01020	-0.04303
0.01220	-0.00680	-0.04780
0.01318	-0.00737	-0.05074
0.01629	-0.00186	-0.05436
0.01899	0.00297	-0.05799
0.02135	0.00492	-0.06244
0.02565	0.00765	-0.06725
0.02899	0.01363	-0.06898
0.03132	0.01801	-0.07145
0.03549	0.02083	-0.07822
0.03959	0.02261	-0.08595
0.04315	0.02260	-0.09155
0.04589	0.02178	-0.09723
0.04787	0.02132	-0.09979
0.04896	0.01944	-0.10543
0.05200	0.01979	-0.11288
0.05855	0.02685	-0.11580
0.06271	0.03671	-0.12025
0.06817	0.04256	-0.12617
0.07530	0.04338	-0.12935
0.08377	0.04547	-0.13740
0.09420	0.04920	-0.15370
0.10160	0.05073	-0.16057
0.11329	0.06991	-0.16336
0.12434	0.08544	-0.16947
0.13106	0.08679	-0.17821
0.13810	0.08845	-0.18555
0.14549	0.09539	-0.19382
0.15389	0.10127	-0.20323
0.16009	0.10344	-0.21371
0.16821	0.10673	-0.22231
0.18870	0.11755	-0.22825
0.21030	0.12503	-0.24682
0.21819	0.12340	-0.25810
0.22776	0.14009	-0.26566
0.24226	0.17043	-0.27701
0.25020	0.18240	-0.29060
0.25607	0.18577	-0.30408
0.26926	0.19478	-0.31566
0.27574	0.19953	-0.32825
0.28441	0.20740	-0.34183
0.30900	0.22820	-0.35360
0.31651	0.23436	-0.36682
0.32926	0.24053	-0.37894
0.34185	0.24685	-0.38708
0.34916	0.25450	-0.39762
0.35895	0.26800	-0.41145
0.36523	0.27800	-0.42005
0.37419	0.28643	-0.42825
0.38389	0.29924	-0.43973
0.39425	0.31777	-0.44798
0.40810	0.33135	-0.44970
0.42162	0.33394	-0.45655
0.42091	0.33768	-0.45784
0.41698	0.34139	-0.45401
0.41445	0.34530	-0.44974
0.40615	0.34605	-0.44495
0.39638	0.34021	-0.43933
0.38589	0.33509	-0.42993
0.37803	0.33080	-0.42056
0.37010	0.32683	-0.41003
0.35605	0.32290	-0.39605
0.34515	0.31749	-0.38163
0.33437	0.31884	-0.36543
0.32048	0.30966	-0.34605
0.29995	0.28864	-0.32785
0.26995	0.27140	-0.31230
0.24685	0.25646	-0.29086
0.22625	0.24248	-0.27124
0.20531	0.22434	-0.25317
0.18465	0.20637	-0.23370
0.16400	0.19100	-0.21500
0.14668	0.17588	-0.19700
0.12686	0.16035	-0.18086
0.10972	0.14617	-0.16500
0.09549	0.13345	-0.14812
0.08015	0.12095	-0.13020
0.06424	0.10811	-0.11451
0.05014	0.09412	-0.10159
0.03905	0.08043	-0.08976
0.03218	0.07124	-0.07873
0.02875	0.06420	-0.06780
0.02183	0.05508	-0.05908
0.01503	0.04818	-0.05156
0.00779	0.04036	-0.04440
0.00053	0.03099	-0.03800
-0.00520	0.02565	-0.03260
-0.01142	0.02236	-0.02879
-0.01544	0.02053	-0.02574
-0.01962	0.02126	-0.02242
-0.02339	0.02031	-0.01704
-0.02720	0.01715	-0.01350
-0.02929	0.01737	-0.01172
-0.03138	0.01773	-0.01173
-0.03388	0.01749	-0.01061
-0.03558	0.01602	-0.00882
-0.03530	0.01230	-0.00790
-0.03494	0.01234	-0.00538
-0.03527	0.01217	-0.00415
-0.03526	0.01200	-0.00261
-0.03528	0.01118	-0.00005
-0.03600	0.00750	0.00215
-0.03492	0.00770	0.00635
-0.03606	0.00836	0.00711
-0.03806	0.00544	0.00714
-0.03820	0.00268	0.01007
-0.03885	0.00270	0.01100
-0.03898	0.00276	0.01057
-0.03851	0.00372	0.01246
-0.03859	0.00079	0.01507
-0.03842	-0.00205	0.01666
-0.03710	-0.00145	0.01810
-0.03978	-0.00173	0.01514
-0.03947	-0.00131	0.01527
-0.03977	-0.00421	0.01607
-0.04055	-0.00685	0.01625
-0.03865	-0.00720	0.01680
-0.03675	-0.00755	0.01735
-0.03714	-0.00758	0.01837
-0.03677	-0.00775	0.01961
-0.03512	-0.00802	0.01971
-0.03550	-0.00795	0.01960
-0.03486	-0.00715	0.02040
-0.03488	-0.00644	0.02093
-0.03506	-0.00593	0.02126
-0.03499	-0.00605	0.02129
-0.03495	-0.00585	0.02185
-0.03490	-0.00560	0.02255
-0.03583	-0.00818	0.02291
-0.03636	-0.01073	0.02366
-0.03624	-0.00945	0.02405
-0.03560	-0.00865	0.02485
-0.03612	-0.00869	0.02621
-0.03625	-0.00870	0.02655
-0.03625	-0.00870	0.02655
-0.03625	-0.00870	0.02655
-0.03625	-0.00870	0.02655
-0.03625	-0.00870	0.02655
-0.03654	-0.00884	0.02592
-0.03567	-0.00842	0.02781
-0.03480	-0.00800	0.02970
-0.03480	-0.00800	0.02970
-0.03624	-0.01136	0.03042
-0.03660	-0.01220	0.03060
-0.03660	-0.01220	0.03060
-0.03674	-0.01226	0.03080
-0.03730	-0.01250	0.03160
-0.03730	-0.01250	0.03160
-0.03638	-0.01244	0.03202
-0.03914	-0.01262	0.03076
-0.04196	-0.01263	0.02961
-0.04220	-0.01195	0.03005
-0.04220	-0.01195	0.03005
-0.04183	-0.01190	0.03014
-0.04354	-0.01181	0.03059
-0.04506	-0.01185	0.03066
-0.04505	-0.01180	0.03080
-0.04493	-0.01120	0.03248
-0.04610	-0.01131	0.03264
-0.04885	-0.01144	0.03152
-0.04945	-0.01110	0.03150
-0.04945	-0.01110	0.03150
-0.04965	-0.01022	0.03250
-0.05016	-0.01011	0.03355
-0.05045	-0.01045	0.03369
-0.05052	-0.01028	0.03348
-0.05200	-0.00980	0.03360
-0.05364	-0.01056	0.03408
-0.05409	-0.01161	0.03455
-0.05384	-0.00909	0.03393
-0.05307	-0.00681	0.03503
-0.05445	-0.00670	0.03620
-0.05441	-0.00650	0.03676
-0.05458	-0.00594	0.03723
-0.05470	-0.00560	0.03745
-0.05485	-0.00551	0.03770
-0.05570	-0.00505	0.03900
-0.05694	-0.00561	0.03892
-0.05802	-0.00519	0.04049
-0.05864	-0.00469	0.04190
-0.05845	-0.00485	0.04145
-0.05845	-0.00485	0.04145
-0.05841	-0.00465	0.04201
-0.05854	-0.00449	0.04247
-0.05871	-0.00453	0.04237
-0.05826	-0.00452	0.04270
-0.05670	-0.00460	0.04370
-0.05670	-0.00460	0.04370
-0.05665	-0.00462	0.04364
-0.05680	-0.00456	0.04382
-0.05708	-0.00451	0.04434
-0.05760	-0.00455	0.04570
-0.05836	-0.00391	0.04750
-0.05932	-0.00371	0.04886
-0.05844	-0.00394	0.04987
-0.05735	-0.00413	0.05026
-0.05755	-0.00405	0.05050
-0.05631	-0.00061	0.05002
-0.05600	0.00025	0.04990
-0.05600	0.00025	0.04990
-0.05600	0.00025	0.04990
-0.05600	0.00025	0.04990
-0.05652	0.00049	0.04818
-0.05573	0.00061	0.04817
-0.05849	0.00043	0.04691
-0.06119	0.00008	0.04554
-0.06095	-0.00060	0.04510
-0.06095	-0.00060	0.04510
-0.06095	-0.00060	0.04510
-0.06095	-0.00060	0.04510
-0.06095	-0.00060	0.04510
-0.06095	-0.00060	0.04510
-0.06095	-0.00060	0.04510
-0.06095	-0.00060	0.04510
-0.06095	-0.00060	0.04510
-0.06095	-0.00060	0.04510
-0.06095	-0.00060	0.04510
-0.06095	-0.00060	0.04510
-0.06209	-0.00039	0.04477
-0.06323	-0.00018	0.04444
-0.06285	-0.00025	0.04455
-0.06285	-0.00025	0.04455
-0.06285	-0.00025	0.04455
-0.06251	0.00076	0.04485
-0.06341	-0.00167	0.04563
-0.06435	-0.00430	0.04585
-0.06435	-0.00430	0.04585
-0.06397	-0.00437	0.04596
-0.06528	-0.00688	0.04621
-0.06590	-0.00860	0.04645
-0.06590	-0.00860	0.04645
-0.06590	-0.00860	0.04645
-0.06286	-0.00916	0.04733
-0.06207	-0.01158	0.04857
-0.06166	-0.01393	0.04970
-0.05977	-0.01352	0.04991
-0.05825	-0.01380	0.05035
-0.05669	-0.01388	0.05135
-0.05571	-0.01676	0.05240
-0.05664	-0.01934	0.05276
-0.05785	-0.01820	0.05220
-0.05785	-0.01820	0.05220
-0.06061	-0.02136	0.05224
-0.06168	-0.02208	0.05214
-0.06092	-0.02222	0.05236
-0.06168	-0.02208	0.05214
-0.06320	-0.02180	0.05170
-0.06444	-0.02524	0.05218
-0.06517	-0.02628	0.05290
-0.06635	-0.02632	0.05328
-0.06774	-0.02603	0.05250
-0.06740	-0.02630	0.05205
-0.06578	-0.02293	0.05168
-0.06699	-0.02179	0.05112
-0.06813	-0.02158	0.05079
-0.06775	-0.02165	0.05090
-0.06775	-0.02165	0.05090
-0.06927	-0.02137	0.05046
-0.07019	-0.02143	0.05004
-0.06857	-0.02104	0.05097
-0.06658	-0.01996	0.05167
-0.06510	-0.01720	0.05075
-0.06510	-0.01720	0.05075
-0.06509	-0.01715	0.05089
-0.06512	-0.01730	0.05047
-0.06515	-0.01745	0.05005
-0.06515	-0.01745	0.05005
-0.06515	-0.01745	0.05005
-0.06546	-0.01831	0.05017
-0.06453	-0.01573	0.04981
-0.06360	-0.01315	0.04945
-0.06550	-0.01280	0.04890
-0.06550	-0.01280	0.04890
-0.06388	-0.01241	0.04983
-0.06226	-0.01202	0.05076
-0.06266	-0.01209	0.05025
-0.06210	-0.01185	0.04945
-0.06210	-0.01185	0.04945
-0.06195	-0.01191	0.04927
-0.06211	-0.01283	0.04921
-0.06371	-0.01711	0.04987
-0.06495	-0.02055	0.05035
-0.06439	-0.02031	0.04955
-0.06505	-0.02289	0.05014
-0.06592	-0.02629	0.04955
-0.06603	-0.02983	0.04918
-0.06610	-0.02890	0.04895
-0.06118	-0.02522	0.05015
-0.05991	-0.02487	0.05032
-0.05855	-0.02534	0.04961
-0.05705	-0.02520	0.04945
-0.05705	-0.02520	0.04945
-0.05429	-0.02204	0.04941
-0.05198	-0.02086	0.05033
-0.04998	-0.02054	0.05137
-0.04848	-0.02096	0.05141
-0.04830	-0.02065	0.05050
-0.04996	-0.02098	0.04951
-0.04936	-0.01839	0.04775
-0.04958	-0.01549	0.04588
-0.05074	-0.01600	0.04630
-0.04820	-0.01555	0.04765
-0.04820	-0.01555	0.04765
-0.04799	-0.01258	0.04636
-0.04792	-0.00967	0.04527
-0.04799	-0.01071	0.04488
-0.04855	-0.01115	0.04240
-0.04623	-0.01091	0.04284
-0.04561	-0.01210	0.04264
-0.04452	-0.00847	0.04096
-0.04302	-0.00033	0.03835
-0.04190	0.00655	0.03615
-0.04094	0.01399	0.03167
-0.04080	0.02135	0.02715
-0.03872	0.02874	0.02604
-0.03512	0.03587	0.02403
-0.03395	0.03805	0.02015
-0.03743	0.04140	0.01904
-0.03216	0.05777	0.01436
-0.02777	0.06637	0.00976
-0.02857	0.06067	0.01012
-0.02810	0.06125	0.00920
-0.02573	0.06250	0.00725
-0.02597	0.05909	0.00589
-0.02498	0.05645	0.00930
-0.01763	0.05378	0.02107
-0.01155	0.05320	0.03030
-0.02072	0.08380	0.01927
-0.01608	0.10494	0.01275
-0.00953	0.10665	0.01333
-0.00970	0.10247	0.01252
-0.00635	0.10305	0.01020
-0.00487	0.10257	0.01008
-0.00172	0.10217	0.01060
0.00073	0.10200	0.00905
0.00166	0.10133	0.00732
0.00060	0.10040	0.00585
-0.00307	0.09090	0.00735
-0.00634	0.07917	0.00873
-0.00623	0.07086	0.01594
-0.00735	0.06214	0.02644
-0.01180	0.05210	0.03585
-0.01307	0.04190	0.05300
-0.01572	0.03402	0.05833
-0.02142	0.02649	0.05652
-0.02550	0.01989	0.05828
-0.02620	0.01630	0.06135
-0.03078	0.01308	0.05991
-0.03501	0.01017	0.06190
-0.03807	0.00672	0.06500
-0.04416	0.00315	0.06387
-0.04825	0.00045	0.06420
-0.04953	-0.00196	0.06715
-0.05532	-0.00687	0.07051
-0.05864	-0.00837	0.07115
-0.05942	-0.00879	0.07033
-0.06095	-0.01180	0.07055
-0.05943	-0.01208	0.07099
-0.05893	-0.01496	0.07025
-0.05981	-0.01666	0.06874
-0.05932	-0.01710	0.06876
-0.05775	-0.02310	0.06910
-0.05602	-0.02786	0.06908
-0.05702	-0.02770	0.06809
-0.05896	-0.02896	0.06848
-0.05996	-0.03113	0.06739
-0.06165	-0.03035	0.06180
-0.06613	-0.03403	0.05704
-0.06991	-0.03586	0.05240
-0.07240	-0.03334	0.04732
-0.07705	-0.03892	0.04226
-0.08055	-0.05280	0.03885
-0.07851	-0.05109	0.03589
-0.08897	-0.04759	0.01955
-0.09498	-0.04606	-0.00068
-0.08952	-0.04344	-0.01158
-0.09145	-0.04120	-0.01925
-0.09120	-0.04096	-0.03171
-0.09054	-0.04665	-0.03415
-0.07974	-0.03182	-0.03890
-0.07069	-0.00102	-0.04070
-0.06110	0.02580	-0.02615
-0.00537	0.07746	-0.01908
0.06802	0.13712	-0.00367
0.15265	0.18448	0.01873
0.24369	0.20742	0.03364
0.32995	0.22055	0.02835
0.42849	0.26790	0.00872
0.54188	0.32611	-0.01026
0.66330	0.40071	-0.03881
0.79205	0.50427	-0.08385
0.92610	0.61605	-0.13985
1.04113	0.71233	-0.20833
1.13551	0.80052	-0.24142
1.15020	0.82596	-0.28108
1.10664	0.73296	-0.28532
1.05555	0.56515	-0.19520
0.92533	0.44540	-0.13195
0.77032	0.33564	-0.03481
0.58751	0.21358	0.10555
0.38908	0.10060	0.22753
0.23940	0.00875	0.29175
0.15702	-0.07350	0.32366
0.08310	-0.12147	0.32097
0.01520	-0.16137	0.30572
-0.03400	-0.18964	0.28588
-0.07080	-0.17840	0.24955
-0.09350	-0.17373	0.21433
-0.10050	-0.17534	0.19096
-0.09700	-0.17667	0.17491
-0.09686	-0.17850	0.15641
-0.10190	-0.18100	0.13405
-0.09386	-0.18113	0.12305
-0.07871	-0.16530	0.10938
-0.06095	-0.14231	0.09502
-0.04820	-0.12306	0.08292
-0.04340	-0.10945	0.06960
-0.03817	-0.09765	0.06075
-0.03437	-0.08419	0.05282
-0.03217	-0.07149	0.04680
-0.03027	-0.06350	0.04149
-0.02830	-0.05760	0.03415
-0.02714	-0.05104	0.02867
-0.02454	-0.04467	0.02432
-0.02040	-0.03733	0.02180
-0.01753	-0.02978	0.01754
-0.01485	-0.02350	0.01250
-0.01517	-0.01998	0.01102
-0.01582	-0.01674	0.00701
-0.01437	-0.01473	0.00501
-0.01253	-0.01378	0.00527
-0.01205	-0.01070	0.00255
-0.01223	-0.01096	0.00219
-0.01132	-0.00846	-0.00079
-0.01040	-0.00672	-0.00343
-0.00917	-0.00575	-0.00440
-0.00495	-0.00260	-0.00555
-0.00475	-0.00320	-0.00963
-0.00338	-0.00074	-0.01203
-0.00220	0.00075	-0.01402
-0.00042	0.00084	-0.01636
0.00430	0.00440	-0.01820
0.00472	0.00441	-0.02001
0.00668	0.00575	-0.02276
0.00854	0.00620	-0.02549
0.00948	0.00668	-0.02765
0.01100	0.00965	-0.03185
0.01308	0.00862	-0.03625
0.01389	0.00697	-0.03873
0.01649	0.00940	-0.03961
0.02004	0.01158	-0.04128
0.02165	0.01060	-0.04410
0.02463	0.01051	-0.04458
0.02578	0.00969	-0.04729
0.02871	0.00801	-0.05362
0.03462	0.01055	-0.05796
0.04035	0.02155	-0.06080
0.04604	0.02278	-0.06645
0.05022	0.02114	-0.07034
0.05363	0.02153	-0.07239
0.05537	0.01984	-0.07478
0.05735	0.02005	-0.07820
0.06692	0.03468	-0.07923
0.07652	0.04219	-0.08540
0.08048	0.03986	-0.09375
0.08454	0.04207	-0.09620
0.09395	0.05340	-0.09815
0.10338	0.05321	-0.11143
0.11233	0.06362	-0.11977
0.11929	0.07344	-0.12332
0.12462	0.07346	-0.12829
0.13010	0.07645	-0.13395
0.14287	0.09333	-0.13930
0.15032	0.09781	-0.15164
0.15309	0.09337	-0.16434
0.16120	0.09603	-0.17263
0.17700	0.10920	-0.18255
0.18885	0.12072	-0.19644
0.19710	0.12600	-0.21147
0.20734	0.13080	-0.21985
0.22071	0.13624	-0.22808
0.23540	0.14145	-0.24170
0.24588	0.14909	-0.24620
0.25554	0.16848	-0.25731
0.26841	0.18268	-0.26971
0.28286	0.19146	-0.27961
0.29625	0.20360	-0.29200
0.30316	0.19892	-0.30499
0.31680	0.21134	-0.32290
0.32638	0.22124	-0.33423
0.33010	0.22624	-0.34171
0.34285	0.24060	-0.35510
0.35971	0.25043	-0.36334
0.36917	0.26354	-0.37428
0.37356	0.27398	-0.38444
0.38120	0.28234	-0.39210
0.39155	0.29685	-0.40525
0.40425	0.30996	-0.41863
0.41228	0.31683	-0.42484
0.41549	0.31995	-0.42481
0.41780	0.32554	-0.42475
0.42350	0.33575	-0.42380
0.43171	0.33938	-0.41833
0.43036	0.33841	-0.41807
0.41824	0.33832	-0.42356
0.40841	0.33979	-0.42560
0.40570	0.34095	-0.42165
0.39145	0.34270	-0.42409
0.38377	0.34833	-0.41174
0.37561	0.34398	-0.38806
0.35764	0.32756	-0.36724
0.33580	0.31300	-0.35205
0.31580	0.29914	-0.33542
0.29741	0.29272	-0.31833
0.27750	0.28134	-0.29893
0.25455	0.26229	-0.27782
0.23075	0.24710	-0.25770
0.20973	0.23148	-0.24026
0.18990	0.21947	-0.22382
0.17105	0.20763	-0.20419
0.15295	0.19123	-0.18454
0.13430	0.17530	-0.16860
0.11722	0.15950	-0.15104
0.10051	0.14312	-0.13221
0.08531	0.12714	-0.11517
0.07275	0.11600	-0.10331
0.06115	0.10645	-0.09295
0.05138	0.09300	-0.07977
0.04109	0.08152	-0.06856
0.03059	0.07477	-0.05820
0.02219	0.06890	-0.04835
0.01430	0.06245	-0.04205
0.00490	0.05633	-0.03605
-0.00305	0.04981	-0.03206
-0.01093	0.04315	-0.02879
-0.01856	0.03613	-0.02408
-0.02230	0.02910	-0.01825
-0.02512	0.02731	-0.01314
-0.03123	0.02706	-0.00976
-0.03451	0.02756	-0.00679
-0.03626	0.02575	-0.00329
-0.04005	0.02225	-0.00035
-0.03844	0.02187	0.00367
-0.03752	0.02306	0.00572
-0.03962	0.02022	0.00712
-0.04121	0.01660	0.01049
-0.04150	0.01595	0.01255
-0.03909	0.01531	0.01468
-0.04144	0.01267	0.01775
-0.04472	0.01067	0.02177
-0.04403	0.01186	0.02346
-0.04275	0.01150	0.02090
-0.04381	0.00837	0.02047
-0.04239	0.00636	0.02106
-0.04215	0.00815	0.02071
-0.04049	0.00601	0.02161
-0.03565	0.00145	0.02385
-0.03717	0.00173	0.02341
-0.03767	0.00275	0.02313
-0.03807	0.00004	0.02342
-0.03923	-0.00253	0.02349
-0.03885	-0.00260	0.02360
-0.04101	-0.00312	0.02236
-0.04275	-0.00206	0.02163
-0.04409	-0.00472	0.02146
-0.04505	-0.00745	0.02140
-0.04505	-0.00745	0.02140
-0.04505	-0.00745	0.02140
-0.04462	-0.00739	0.02082
-0.04573	-0.00799	0.02244
-0.04846	-0.00869	0.02570
-0.05050	-0.00785	0.02610
-0.05050	-0.00785	0.02610
-0.05050	-0.00785	0.02610
-0.05050	-0.00785	0.02610
-0.04996	-0.00772	0.02641
-0.04780	-0.00720	0.02765
-0.04932	-0.00692	0.02721
-0.04913	-0.00694	0.02863
-0.04856	-0.00703	0.03016
-0.04875	-0.00700	0.02965
-0.04875	-0.00700	0.02965
-0.04875	-0.00700	0.02965
-0.04878	-0.00715	0.02923
-0.04919	-0.00723	0.02870
-0.05108	-0.00683	0.02829
-0.05260	-0.00655	0.02785
-0.05260	-0.00655	0.02785
-0.05374	-0.00634	0.02752
-0.05535	-0.00607	0.02645
-0.05669	-0.00577	0.02727
-0.05555	-0.00600	0.03235
-0.05248	-0.00305	0.03413
-0.05096	-0.00184	0.03801
-0.05106	-0.00125	0.04056
-0.05105	-0.00120	0.04070
-0.05105	-0.00120	0.04070
-0.05105	-0.00120	0.04070
-0.05166	-0.00092	0.04149
-0.05223	-0.00044	0.04284
-0.05169	0.00046	0.04283
-0.05045	0.00390	0.04235
-0.05045	0.00390	0.04235
-0.05249	0.00333	0.04202
-0.05453	0.00276	0.04169
-0.05384	0.00300	0.04194
-0.05380	0.00320	0.04250
-0.05380	0.00320	0.04250
-0.05397	0.00240	0.04242
-0.05346	0.00480	0.04266
-0.05306	0.00739	0.04307
-0.05350	0.00815	0.04375
-0.05562	0.00783	0.04307
-0.05604	0.00756	0.04273
-0.05635	0.00823	0.04352
-0.05679	0.00889	0.04465
-0.05735	0.00865	0.04545
-0.05731	0.00885	0.04601
-0.05770	0.01040	0.04643
-0.05769	0.00809	0.04774
-0.05704	0.00564	0.04873
-0.05540	0.00640	0.04825
-0.05428	0.00686	0.04943
-0.06418	0.00520	0.04430
-0.07031	0.00439	0.04259
-0.06711	0.00427	0.04587
-0.06890	0.00065	0.04590
-0.06928	0.00072	0.04579
-0.06773	0.00059	0.04665
-0.06656	0.00053	0.04740
-0.06695	0.00055	0.04715
-0.06695	0.00055	0.04715
-0.06715	0.00143	0.04815
-0.06855	-0.00111	0.04936
-0.06938	-0.00388	0.05023
-0.06959	-0.00301	0.05020
-0.07015	-0.00325	0.05100
-0.06859	-0.00333	0.05200
-0.06831	-0.00267	0.05273
-0.06966	-0.00543	0.05369
-0.07056	-0.00776	0.05402
-0.07100	-0.00700	0.05470
-0.07100	-0.00700	0.05470
-0.07101	-0.00705	0.05456
-0.07136	-0.00683	0.05487
-0.07019	-0.00689	0.05562
-0.07095	-0.00675	0.05540
-0.08207	-0.00837	0.05302
-0.08345	-0.00994	0.05420
-0.08111	-0.00887	0.05658
-0.08261	-0.01066	0.05682
-0.08385	-0.01410	0.05730
-0.08169	-0.01358	0.05854
-0.08115	-0.01345	0.05885
-0.08039	-0.01359	0.05907
-0.07925	-0.01380	0.05940
-0.07925	-0.01380	0.05940
-0.07925	-0.01380	0.05940
-0.07940	-0.01314	0.06015
-0.07961	-0.01231	0.06101
-0.08000	-0.01174	0.06151
-0.08080	-0.01130	0.06275
-0.08010	-0.01157	0.06434
-0.07967	-0.01236	0.06427
-0.07949	-0.01287	0.06394
-0.07901	-0.01257	0.06436
-0.07685	-0.01205	0.06560
-0.07685	-0.01205	0.06560
-0.07571	-0.01226	0.06593
-0.07457	-0.01247	0.06626
-0.07495	-0.01240	0.06615
-0.07495	-0.01240	0.06615
-0.07491	-0.01220	0.06671
-0.07490	-0.01215	0.06685
-0.07452	-0.01222	0.06696
-0.07609	-0.01192	0.06658
-0.08275	-0.01065	0.06495
-0.08783	-0.01035	0.06297
-0.08685	-0.01046	0.06328
-0.08695	-0.01113	0.06279
-0.08894	-0.01140	0.06189
-0.08890	-0.01120	0.06245
-0.08982	-0.00828	0.06073
-0.08853	-0.00783	0.06074
-0.08815	-0.00790	0.06085
-0.08815	-0.00790	0.06085
-0.08815	-0.00790	0.06085
-0.08815	-0.00790	0.06085
-0.08663	-0.00834	0.06233
-0.08507	-0.00858	0.06437
-0.08575	-0.00819	0.06456
-0.08655	-0.00775	0.06580
-0.08655	-0.00775	0.06580
-0.08693	-0.00768	0.06569
-0.08579	-0.00789	0.06602
-0.08470	-0.00808	0.06641
-0.08490	-0.00800	0.06665
-0.08510	-0.00792	0.06689
-0.08569	-0.00782	0.06688
-0.08462	-0.00784	0.06775
-0.08345	-0.00790	0.06850
-0.08345	-0.00790	0.06850
-0.08349	-0.00838	0.07102
-0.08306	-0.00874	0.07165
-0.08438	-0.00802	0.07165
-0.08228	-0.00793	0.07264
-0.07810	-0.00870	0.07385
-0.09102	-0.00632	0.07011
-0.09220	-0.00503	0.06997
-0.08885	-0.00916	0.07219
-0.09082	-0.01802	0.07358
-0.08995	-0.02460	0.07530
-0.08935	-0.02196	0.07402
-0.08703	-0.02104	0.07484
-0.08586	-0.02243	0.07611
-0.08281	-0.02287	0.07636
-0.07725	-0.02375	0.07640
-0.07835	-0.02334	0.07663
-0.07910	-0.02315	0.07655
-0.07986	-0.02301	0.07633
-0.08114	-0.02286	0.07620
-0.08170	-0.02310	0.07700
-0.08322	-0.02282	0.07656
-0.08360	-0.02275	0.07645
-0.08436	-0.02261	0.07623
-0.08599	-0.02255	0.07553
-0.08795	-0.02315	0.07405
-0.08951	-0.02307	0.07305
-0.09019	-0.02329	0.07383
-0.09176	-0.02315	0.07292
-0.09310	-0.02272	0.07104
-0.09290	-0.02280	0.07080
-0.09442	-0.02252	0.07036
-0.09521	-0.02253	0.06972
-0.09448	-0.02282	0.06952
-0.09200	-0.02315	0.07006
-0.09200	-0.02285	0.06880
-0.10150	-0.02110	0.06605
-0.10387	-0.02181	0.06542
-0.09942	-0.01919	0.06654
-0.09712	-0.01614	0.06666
-0.09660	-0.01610	0.06530
-0.09424	-0.01566	0.06630
-0.09350	-0.01524	0.06557
-0.09497	-0.01532	0.06366
-0.09370	-0.01529	0.06460
-0.09130	-0.01545	0.06540
-0.09058	-0.01549	0.06380
-0.08860	-0.01562	0.06400
-0.08673	-0.01563	0.06514
-0.08747	-0.01581	0.06386
-0.08840	-0.01595	0.05955
-0.08498	-0.00799	0.05602
-0.08145	0.00038	0.05276
-0.07828	0.00469	0.04832
-0.07560	0.00922	0.04281
-0.07610	0.01625	0.03630
-0.07457	0.02378	0.03067
-0.07183	0.02723	0.02913
-0.06760	0.03190	0.02753
-0.06495	0.03700	0.02378
-0.06325	0.04065	0.02205
-0.05989	0.04441	0.02225
-0.05701	0.04758	0.02090
-0.05682	0.04996	0.01775
-0.05272	0.05193	0.01896
-0.04490	0.05170	0.02470
-0.05368	0.05601	0.02371
-0.05760	0.05837	0.02684
-0.05027	0.06663	0.03170
-0.04325	0.07642	0.03260
-0.04065	0.08425	0.03155
-0.03037	0.11088	0.02704
-0.02458	0.11288	0.02736
-0.02290	0.10362	0.03079
-0.01997	0.10329	0.03241
-0.01690	0.09940	0.03400
-0.01346	0.09216	0.03856
-0.01204	0.08867	0.03956
-0.01030	0.08177	0.04139
-0.00752	0.08559	0.04149
-0.01035	0.10020	0.03865
-0.02437	0.07391	0.04819
-0.03757	0.04236	0.06723
-0.04482	0.02688	0.07517
-0.04820	0.02145	0.07189
-0.04995	0.01715	0.07200
-0.05226	0.01149	0.07187
-0.05638	0.00859	0.07052
-0.05582	0.00549	0.07172
-0.06182	0.00211	0.07143
-0.08325	0.00080	0.06525
-0.08649	-0.00580	0.06807
-0.09612	-0.01375	0.07225
-0.10519	-0.01826	0.07575
-0.10652	-0.02220	0.07960
-0.10770	-0.02835	0.08420
-0.10702	-0.03600	0.08544
-0.10620	-0.04110	0.08627
-0.10598	-0.04436	0.08588
-0.10389	-0.04711	0.08561
-0.10065	-0.04775	0.08625
-0.09897	-0.04831	0.08589
-0.09790	-0.04740	0.08357
-0.09837	-0.05517	0.08345
-0.09827	-0.06419	0.08607
-0.09665	-0.06315	0.08560
-0.09953	-0.06223	0.07976
-0.10218	-0.06158	0.07436
-0.10438	-0.06108	0.07033
-0.10685	-0.06041	0.06619
-0.10920	-0.05995	0.06145
-0.11272	-0.06091	0.05402
-0.11286	-0.06183	0.05000
-0.11629	-0.06051	0.04062
-0.12426	-0.05771	0.02410
-0.13110	-0.05765	0.00885
-0.14106	-0.05962	-0.00482
-0.14397	-0.05271	-0.01690
-0.14752	-0.05309	-0.02092
-0.14297	-0.04511	-0.02486
-0.12810	-0.01090	-0.03580
-0.12507	0.01090	-0.03440
-0.08127	0.05359	-0.02314
-0.01855	0.10201	-0.01492
0.05596	0.14693	-0.00274
0.15635	0.19190	0.01675
0.23241	0.20648	0.01270
0.31928	0.23562	0.00054
0.42766	0.27473	-0.01932
0.54363	0.33550	-0.05468
0.66220	0.44045	-0.10385
0.79152	0.53412	-0.15151
0.90956	0.62931	-0.20278
1.00159	0.71858	-0.26776
1.06601	0.77849	-0.31099
1.08420	0.75505	-0.30095
1.01382	0.58586	-0.28864
0.89275	0.41573	-0.23488
0.74461	0.30958	-0.15577
0.57093	0.22854	-0.03816
0.38215	0.13590	0.12050
0.22163	0.05112	0.20688
0.12647	-0.00309	0.24479
0.05941	-0.04486	0.25995
-0.01048	-0.09219	0.25055
-0.06730	-0.13075	0.21440
-0.10120	-0.15216	0.17187
-0.12230	-0.16049	0.14819
-0.13500	-0.16307	0.12953
-0.14444	-0.16622	0.10804
-0.14780	-0.17165	0.09595
-0.14110	-0.18077	0.08689
-0.13286	-0.18576	0.07831
-0.12727	-0.19080	0.06899
-0.11784	-0.18928	0.05946
-0.10280	-0.16985	0.04935
-0.09641	-0.15162	0.03727
-0.09286	-0.13691	0.02746
-0.09248	-0.12541	0.02218
-0.09327	-0.11290	0.02202
-0.09090	-0.09840	0.02355
-0.09158	-0.08644	0.02157
-0.09237	-0.08044	0.02397
-0.09237	-0.07790	0.02418
-0.09282	-0.07492	0.02093
-0.09225	-0.07105	0.02010
-0.09027	-0.06692	0.01737
-0.09258	-0.06296	0.01351
-0.08747	-0.06009	0.01243
-0.07878	-0.05758	0.01311
-0.07925	-0.05370	0.01055
-0.07655	-0.05403	0.00908
-0.07371	-0.05171	0.00744
-0.07250	-0.04977	0.00605
-0.07086	-0.04863	0.00490
-0.06930	-0.04555	0.00230
-0.06912	-0.04652	-0.00037
-0.06521	-0.04361	-0.00142
-0.06369	-0.04178	-0.00169
-0.06315	-0.04177	-0.00332
-0.05845	-0.03880	-0.00505
-0.05713	-0.03920	-0.00765
-0.05565	-0.03830	-0.01057
-0.05289	-0.03360	-0.01293
-0.05083	-0.03173	-0.01494
-0.04975	-0.03145	-0.01710
-0.04563	-0.02833	-0.01870
-0.04402	-0.02456	-0.02176
-0.04238	-0.02404	-0.02358
-0.03944	-0.02360	-0.02544
-0.03765	-0.02105	-0.02990
-0.03386	-0.01810	-0.03052
-0.03305	-0.01497	-0.03354
-0.03133	-0.01292	-0.03663
-0.02876	-0.01194	-0.03758
-0.02765	-0.00900	-0.04040
-0.02227	-0.00598	-0.04487
-0.01682	-0.00522	-0.04806
-0.01166	-0.00493	-0.05171
-0.00517	-0.00084	-0.05618
0.00145	0.00010	-0.05985
0.00733	-0.00284	-0.06710
0.01492	0.00897	-0.07399
0.02178	0.01740	-0.07856
0.02492	0.01284	-0.08276
0.02835	0.01405	-0.08600
0.03784	0.02765	-0.09158
0.04649	0.03894	-0.10039
0.05342	0.04512	-0.10704
0.05645	0.04604	-0.11210
0.05780	0.04465	-0.11955
0.06685	0.04885	-0.12587
0.07326	0.05203	-0.13352
0.08211	0.06259	-0.14199
0.09523	0.07632	-0.15147
0.10515	0.07985	-0.16000
0.11269	0.08195	-0.16478
0.12336	0.08947	-0.17450
0.13188	0.09537	-0.18109
0.14364	0.10462	-0.18853
0.16270	0.12400	-0.20630
0.17087	0.12664	-0.21105
0.17817	0.12538	-0.22398
0.18310	0.12442	-0.23739
0.19189	0.12889	-0.24373
0.21110	0.14025	-0.25470
0.22458	0.14604	-0.27353
0.23082	0.14890	-0.28089
0.24278	0.15342	-0.28755
0.25645	0.17133	-0.30390
0.26090	0.19510	-0.32050
0.26670	0.19296	-0.33197
0.28522	0.21056	-0.34319
0.29931	0.22796	-0.35726
0.30686	0.23137	-0.36692
0.32070	0.23555	-0.36895
0.32710	0.24129	-0.38649
0.33617	0.25526	-0.39771
0.34211	0.25971	-0.39959
0.34502	0.26055	-0.40549
0.35520	0.27510	-0.41465
0.35960	0.28513	-0.41242
0.35717	0.29943	-0.41660
0.35127	0.30754	-0.41812
0.34325	0.30393	-0.41397
0.33475	0.30005	-0.41395
0.32858	0.29830	-0.40789
0.32238	0.29732	-0.40217
0.31443	0.29563	-0.39295
0.30615	0.29358	-0.37819
0.29840	0.29305	-0.36150
0.28523	0.28239	-0.34432
0.26815	0.27135	-0.33080
0.24762	0.26029	-0.31632
0.22605	0.24943	-0.29965
0.20545	0.23875	-0.28180
0.18502	0.22645	-0.25916
0.16719	0.21917	-0.23896
0.14828	0.20566	-0.21903
0.12553	0.18209	-0.19838
0.10460	0.16320	-0.18145
0.09075	0.15079	-0.16711
0.07447	0.13810	-0.15602
0.05801	0.12476	-0.14181
0.04122	0.11147	-0.12568
0.02270	0.09915	-0.11100
0.00929	0.08958	-0.09669
-0.00121	0.08387	-0.08128
-0.01060	0.07540	-0.06866
-0.01931	0.06606	-0.06063
-0.02790	0.05980	-0.05265
-0.03716	0.04967	-0.04572
-0.04490	0.04154	-0.03886
-0.05249	0.03772	-0.03328
-0.05916	0.03422	-0.02712
-0.06150	0.03155	-0.01825
-0.06342	0.02866	-0.01275
-0.06844	0.02406	-0.00809
-0.07414	0.02141	-0.00306
-0.07754	0.01972	0.00021
-0.07970	0.01530	0.00015
-0.08204	0.01197	0.00212
-0.08129	0.01096	0.00283
-0.08050	0.01066	0.00514
-0.08025	0.01037	0.00790
-0.07860	0.01010	0.00800
-0.08005	0.00662	0.00910
-0.08220	0.00551	0.01647
-0.08282	0.00560	0.02136
-0.08213	0.00610	0.02048
-0.08175	0.00580	0.02240
-0.08147	0.00208	0.02332
-0.08140	0.00115	0.02355
-0.08140	0.00115	0.02355
-0.08089	0.00102	0.02409
-0.07885	0.00050	0.02625
-0.07847	0.00043	0.02636
-0.08016	-0.00201	0.02650
-0.07995	-0.00480	0.02719
-0.07850	-0.00415	0.02740
-0.07850	-0.00415	0.02740
-0.07798	-0.00439	0.02912
-0.07909	-0.00656	0.02951
-0.08793	-0.00727	0.02727
-0.09651	-0.00491	0.02468
-0.09385	-0.00540	0.02545
-0.09385	-0.00540	0.02545
-0.09410	-0.00396	0.02555
-0.09483	-0.00610	0.02635
-0.09570	-0.00885	0.02660
-0.09380	-0.00920	0.02715
-0.09342	-0.00927	0.02726
-0.09467	-0.01195	0.02740
-0.09585	-0.01309	0.02786
-0.09514	-0.01278	0.02884
-0.09310	-0.01330	0.03100
-0.09272	-0.01337	0.03111
-0.09403	-0.01588	0.03136
-0.09496	-0.01846	0.03172
-0.09465	-0.01760	0.03160
-0.09465	-0.01760	0.03160
-0.09437	-0.02132	0.03252
-0.09430	-0.02225	0.03275
-0.09430	-0.02225	0.03275
-0.09430	-0.02225	0.03275
-0.09430	-0.02225	0.03275
-0.09154	-0.01909	0.03271
-0.09060	-0.01831	0.03238
-0.09059	-0.01842	0.03356
-0.09020	-0.01860	0.03485
-0.09020	-0.01860	0.03485
-0.08968	-0.01884	0.03657
-0.08862	-0.01632	0.03664
-0.08743	-0.01386	0.03714
-0.08776	-0.01509	0.03867
-0.09005	-0.01555	0.03700
-0.09057	-0.01531	0.03528
-0.09070	-0.01525	0.03485
-0.09070	-0.01525	0.03485
-0.09039	-0.01439	0.03473
-0.08915	-0.01095	0.03425
-0.08915	-0.01095	0.03425
-0.08902	-0.01094	0.03391
-0.08979	-0.01090	0.03482
-0.08866	-0.01121	0.03628
-0.08600	-0.01170	0.03705
-0.09426	-0.00651	0.03382
-0.09604	-0.00489	0.03461
-0.09471	-0.00476	0.03651
-0.09503	-0.00479	0.03552
-0.09555	-0.00455	0.03380
-0.09627	-0.00451	0.03540
-0.09652	-0.00357	0.03557
-0.09707	-0.00622	0.03604
-0.09838	-0.00873	0.03629
-0.09800	-0.00880	0.03640
-0.09700	-0.00912	0.03820
-0.09670	-0.00922	0.03859
-0.09685	-0.00916	0.03877
-0.09700	-0.00910	0.03895
-0.09700	-0.00910	0.03895
-0.09724	-0.00842	0.03939
-0.09743	-0.00819	0.03907
-0.09704	-0.00837	0.04036
-0.09627	-0.00862	0.04176
-0.09475	-0.00890	0.04220
-0.09495	-0.00882	0.04244
-0.09552	-0.00877	0.04309
-0.09552	-0.00898	0.04540
-0.09500	-0.00915	0.04635
-0.09500	-0.00915	0.04635
-0.09500	-0.00915	0.04635
-0.09495	-0.00917	0.04629
-0.09510	-0.00911	0.04647
-0.09480	-0.00901	0.04730
-0.09300	-0.00885	0.04990
-0.09300	-0.00885	0.04990
-0.09273	-0.00878	0.04936
-0.09396	-0.00917	0.05158
-0.09566	-0.01011	0.05574
-0.09390	-0.01075	0.05830
-0.09510	-0.01399	0.05934
-0.09633	-0.01738	0.05996
-0.09755	-0.02072	0.06072
-0.09882	-0.02303	0.06153
-0.09845	-0.02315	0.06150
-0.09745	-0.02319	0.06022
-0.09717	-0.02305	0.06032
-0.09714	-0.02290	0.06074
-0.09769	-0.02308	0.06029
-0.09985	-0.02360	0.05905
-0.10057	-0.02356	0.06065
-0.10189	-0.02282	0.06140
-0.10430	-0.02191	0.06101
-0.10100	-0.02272	0.06154
-0.09725	-0.02340	0.06270
-0.11155	-0.02013	0.05907
-0.11503	-0.01933	0.05819
-0.11199	-0.01989	0.05907
-0.11313	-0.01968	0.05874
-0.11275	-0.01975	0.05885
-0.11123	-0.02003	0.05929
-0.11002	-0.01984	0.05933
-0.11033	-0.01937	0.05893
-0.10972	-0.01962	0.05921
-0.10820	-0.01990	0.05965
-0.10820	-0.01990	0.05965
-0.10858	-0.01983	0.05954
-0.10744	-0.02004	0.05987
-0.10630	-0.02025	0.06020
-0.10630	-0.02025	0.06020
-0.10493	-0.01687	0.06015
-0.10363	-0.01610	0.05861
-0.10153	-0.01680	0.06473
-0.09942	-0.01761	0.07203
-0.10020	-0.01725	0.06945
-0.09825	-0.01723	0.06866
-0.09722	-0.01737	0.06911
-0.09798	-0.01723	0.06889
-0.09722	-0.01737	0.06911
-0.09570	-0.01765	0.06955
-0.09638	-0.01713	0.06863
-0.09617	-0.01707	0.06851
-0.09769	-0.01679	0.06807
-0.09472	-0.01642	0.06872
-0.08930	-0.01375	0.06945
-0.10488	-0.01088	0.06494
-0.10911	-0.00966	0.06449
-0.10626	-0.00960	0.06452
-0.10735	-0.00945	0.06290
-0.10735	-0.00945	0.06290
-0.10735	-0.00945	0.06290
-0.10735	-0.00945	0.06290
-0.10735	-0.00945	0.06290
-0.10748	-0.00939	0.06247
-0.10800	-0.00915	0.06075
-0.10800	-0.00915	0.06075
-0.10808	-0.00827	0.06038
-0.10860	-0.01077	0.06127
-0.10988	-0.01313	0.06194
-0.10950	-0.01320	0.06205
-0.10784	-0.01287	0.06304
-0.10844	-0.01546	0.06480
-0.10905	-0.01729	0.06622
-0.10826	-0.01717	0.06621
-0.10610	-0.01665	0.06745
-0.10472	-0.01315	0.06677
-0.10539	-0.01271	0.06805
-0.10637	-0.01313	0.06945
-0.10665	-0.01325	0.06985
-0.10665	-0.01325	0.06985
-0.10685	-0.01317	0.07009
-0.10705	-0.01309	0.07033
-0.10725	-0.01301	0.07057
-0.10701	-0.01317	0.07081
-0.10520	-0.01415	0.07075
-0.10500	-0.01423	0.07051
-0.10549	-0.01438	0.07014
-0.10387	-0.01399	0.07107
-0.10188	-0.01291	0.07177
-0.10040	-0.01015	0.07085
-0.10002	-0.01022	0.07096
-0.10159	-0.00992	0.07058
-0.10220	-0.00984	0.07018
-0.10237	-0.01000	0.06978
-0.10365	-0.01040	0.06890
-0.10213	-0.01068	0.06934
-0.10137	-0.01082	0.06956
-0.10175	-0.01075	0.06945
-0.10188	-0.01069	0.06902
-0.10240	-0.01045	0.06730
-0.10196	-0.01121	0.06662
-0.10062	-0.01083	0.06609
-0.09908	-0.00940	0.06561
-0.09794	-0.00529	0.06513
-0.09670	-0.00185	0.06465
-0.09698	-0.00229	0.06249
-0.09643	-0.00036	0.06120
-0.09216	0.00451	0.05851
-0.09238	0.00633	0.05374
-0.10140	0.00810	0.04985
-0.10015	0.01522	0.04682
-0.09844	0.02180	0.03982
-0.09691	0.02910	0.03479
-0.09370	0.03641	0.03124
-0.09130	0.04305	0.02480
-0.08880	0.04982	0.02143
-0.08889	0.05436	0.01607
-0.08873	0.05808	0.01059
-0.08733	0.06013	0.00977
-0.08610	0.05890	0.01285
-0.08591	0.05868	0.01431
-0.08516	0.05589	0.01673
-0.08214	0.06387	0.01776
-0.07544	0.07589	0.02212
-0.06880	0.07835	0.03515
-0.06964	0.09906	0.03979
-0.06734	0.10735	0.04196
-0.05791	0.11355	0.04361
-0.05114	0.13126	0.04235
-0.04950	0.15050	0.03935
-0.03715	0.16659	0.03916
-0.03567	0.16028	0.03939
-0.03729	0.14861	0.04103
-0.03517	0.14164	0.04361
-0.03715	0.13375	0.04410
-0.03607	0.12191	0.04642
-0.03488	0.11266	0.04954
-0.03594	0.10616	0.04993
-0.03919	0.09797	0.04942
-0.04290	0.08770	0.05100
-0.04658	0.07714	0.05560
-0.04985	0.06946	0.05786
-0.05081	0.06179	0.05964
-0.05536	0.05028	0.06099
-0.06460	0.04035	0.06250
-0.07055	0.03542	0.06814
-0.08538	0.02682	0.07031
-0.09736	0.01750	0.06996
-0.10198	0.01086	0.07096
-0.10820	0.00495	0.07380
-0.11275	-0.00180	0.07806
-0.11560	-0.00810	0.08195
-0.11773	-0.01092	0.08583
-0.11921	-0.01252	0.08825
-0.11895	-0.01720	0.08590
-0.11870	-0.01730	0.08560
-0.11871	-0.01966	0.08534
-0.11924	-0.02219	0.08380
-0.12004	-0.02380	0.08229
-0.12180	-0.02700	0.08105
-0.12008	-0.02736	0.08125
-0.12118	-0.02703	0.07830
-0.12320	-0.03014	0.07675
-0.12253	-0.03276	0.07726
-0.12285	-0.03260	0.07530
-0.12492	-0.03311	0.07469
-0.12622	-0.03587	0.06829
-0.12772	-0.03838	0.05955
-0.12912	-0.03723	0.05066
-0.12900	-0.03725	0.04050
-0.12772	-0.03842	0.03101
-0.13782	-0.03479	0.01555
-0.14733	-0.03143	0.00108
-0.15115	-0.03134	-0.01115
-0.15385	-0.03135	-0.02180
-0.14718	-0.03160	-0.01995
-0.13812	-0.00675	-0.02621
-0.12126	0.01750	-0.02491
-0.10564	0.04487	-0.01854
-0.08845	0.09650	-0.02150
-0.02521	0.13792	-0.00751
0.05224	0.17211	0.01755
0.13079	0.21212	0.02441
0.20599	0.24329	0.01605
0.28435	0.26570	0.00870
0.39439	0.32551	-0.01647
0.51515	0.39455	-0.04865
0.65229	0.47021	-0.08186
0.78952	0.56355	-0.12940
0.89550	0.66880	-0.19970
0.99164	0.76185	-0.26318
1.05710	0.82027	-0.27794
1.05896	0.77872	-0.27455
0.99346	0.62428	-0.26800
0.88165	0.44585	-0.22890
0.73652	0.34806	-0.14119
0.58016	0.26708	-0.01128
0.39456	0.17157	0.12644
0.22066	0.08408	0.22342
0.12350	0.02075	0.25865
0.06377	-0.02978	0.27028
-0.00437	-0.08175	0.25318
-0.06684	-0.11428	0.22283
-0.10571	-0.12278	0.19371
-0.12695	-0.12350	0.16625
-0.13569	-0.12458	0.14372
-0.14017	-0.12621	0.12590
-0.14710	-0.12985	0.10955
-0.15376	-0.13533	0.09196
-0.15360	-0.14055	0.07400
-0.14532	-0.14409	0.06240
-0.13117	-0.13555	0.05038
-0.11722	-0.12250	0.03852
-0.10641	-0.10925	0.03109
-0.09610	-0.09455	0.02710
-0.08464	-0.07993	0.02215
-0.08384	-0.06755	0.02031
-0.08879	-0.05904	0.01936
-0.09082	-0.05206	0.01698
-0.09010	-0.04665	0.01365
-0.08829	-0.04063	0.01147
-0.08839	-0.03433	0.00923
-0.08579	-0.02709	0.00957
-0.08337	-0.02034	0.00884
-0.08510	-0.01620	0.00345
-0.08493	-0.01233	0.00182
-0.08835	-0.00848	-0.00181
-0.09046	-0.00438	-0.00597
-0.08812	-0.00072	-0.00840
-0.08400	0.00240	-0.01000
-0.08224	0.00588	-0.01184
-0.07989	0.00950	-0.01412
-0.07935	0.01014	-0.01739
-0.07841	0.01105	-0.01996
-0.07465	0.01385	-0.02100
-0.07393	0.01381	-0.02260
-0.07218	0.01641	-0.02513
-0.07095	0.01817	-0.02706
-0.07086	0.01652	-0.02806
-0.06950	0.01695	-0.03055
-0.06499	0.02144	-0.03198
-0.06108	0.02184	-0.03439
-0.05893	0.02266	-0.03830
-0.05569	0.02499	-0.04105
-0.05185	0.02475	-0.04345
-0.04945	0.02659	-0.04697
-0.04672	0.02746	-0.04936
-0.04333	0.02566	-0.04968
-0.04055	0.02764	-0.05184
-0.03690	0.03350	-0.05570
-0.03258	0.03654	-0.05754
-0.02926	0.04231	-0.06243
-0.02679	0.04688	-0.06631
-0.02194	0.05072	-0.06716
-0.01580	0.05770	-0.07140
-0.01517	0.06100	-0.07738
-0.01167	0.06382	-0.08236
-0.00590	0.06562	-0.08413
-0.00341	0.06645	-0.08824
-0.00125	0.06925	-0.09440
0.00466	0.06998	-0.09651
0.00973	0.07117	-0.09994
0.01806	0.07335	-0.10623
0.02666	0.07762	-0.11341
0.03095	0.08355	-0.11875
0.04076	0.09003	-0.12562
0.04842	0.09162	-0.13319
0.05604	0.09551	-0.13800
0.06425	0.10109	-0.14389
0.07010	0.10375	-0.15520
0.07659	0.11047	-0.16223
0.08472	0.11570	-0.17346
0.09263	0.12313	-0.18456
0.09921	0.13281	-0.19423
0.10770	0.13670	-0.20460
0.12554	0.14155	-0.21045
0.13701	0.15251	-0.22242
0.15120	0.16716	-0.23469
0.16861	0.18047	-0.24485
0.17775	0.18730	-0.25700
0.18517	0.19101	-0.27330
0.19640	0.20059	-0.28914
0.20678	0.20707	-0.30030
0.21599	0.21536	-0.31011
0.22950	0.23160	-0.32365
0.24344	0.24204	-0.33907
0.25604	0.24976	-0.35135
0.26758	0.26073	-0.35832
0.27538	0.27529	-0.36603
0.28365	0.28770	-0.37820
0.29873	0.29143	-0.39308
0.30574	0.29057	-0.40396
0.31014	0.29970	-0.40902
0.31704	0.31251	-0.41491
0.32530	0.31910	-0.42570
0.34025	0.33221	-0.43157
0.34366	0.35189	-0.44535
0.34568	0.36538	-0.44933
0.35124	0.36951	-0.44211
0.34655	0.37265	-0.44350
0.34301	0.36967	-0.44182
0.33789	0.36491	-0.44116
0.33290	0.36486	-0.43910
0.32679	0.36708	-0.43565
0.32010	0.36415	-0.43000
0.31539	0.36316	-0.41201
0.30263	0.36699	-0.39976
0.28366	0.36348	-0.38775
0.26420	0.34965	-0.36941
0.24555	0.33830	-0.35120
0.22853	0.32861	-0.33227
0.21190	0.32061	-0.31496
0.19299	0.31025	-0.29462
0.17307	0.29404	-0.27364
0.15375	0.27840	-0.25540
0.13562	0.26647	-0.23450
0.11579	0.25600	-0.21469
0.09673	0.23956	-0.19577
0.07912	0.22010	-0.17943
0.06170	0.20345	-0.16555
0.04690	0.18858	-0.14475
0.03098	0.17609	-0.12502
0.01815	0.16642	-0.10979
0.00914	0.15547	-0.09816
0.00040	0.14510	-0.08740
-0.01024	0.13482	-0.07524
-0.02268	0.12441	-0.06536
-0.03325	0.11556	-0.05659
-0.03998	0.10892	-0.04731
-0.04680	0.10290	-0.04015
-0.05087	0.09682	-0.03489
-0.05636	0.08978	-0.02742
-0.06110	0.08277	-0.01993
-0.06485	0.07705	-0.01565
-0.06885	0.07385	-0.01185
-0.06947	0.06960	-0.00668
-0.07000	0.06889	-0.00106
-0.07172	0.07141	0.00094
-0.07271	0.06940	0.00268
-0.07425	0.06655	0.00545
-0.07414	0.06682	0.00762
-0.07678	0.06663	0.00892
-0.07792	0.06633	0.01256
-0.07895	0.06521	0.01431
-0.08235	0.06125	0.01355
-0.08249	0.06091	0.01683
-0.08222	0.06108	0.01718
-0.08362	0.06058	0.02007
-0.08502	0.05877	0.02530
-0.08490	0.05545	0.02630
-0.08476	0.05528	0.02791
-0.08241	0.05562	0.02995
-0.08168	0.05259	0.03236
-0.08298	0.04997	0.03379
-0.08260	0.04990	0.03390
-0.08260	0.04990	0.03390
-0.08278	0.05092	0.03429
-0.08288	0.04860	0.03458
-0.08340	0.04615	0.03420
-0.08340	0.04615	0.03420
-0.08340	0.04615	0.03420
-0.08371	0.04529	0.03432
-0.08278	0.04787	0.03396
-0.08185	0.05045	0.03360
-0.08185	0.05045	0.03360
-0.08029	0.05037	0.03460
-0.07817	0.05304	0.03400
-0.07758	0.05594	0.03282
-0.07765	0.05495	0.03325
-0.07765	0.05495	0.03325
-0.07641	0.05839	0.03277
-0.07610	0.05925	0.03265
-0.07610	0.05925	0.03265
-0.07670	0.05929	0.03245
-0.07910	0.05945	0.03165
-0.07910	0.05945	0.03165
-0.07952	0.05927	0.03225
-0.07994	0.05909	0.03285
-0.07980	0.05915	0.03265
-0.07980	0.05915	0.03265
-0.08032	0.05939	0.03093
-0.08096	0.05958	0.02996
-0.07956	0.05925	0.03115
-0.07830	0.05909	0.03073
-0.07920	0.05940	0.02890
-0.08148	0.05982	0.02824
-0.09032	0.06175	0.02505
-0.09508	0.06165	0.02635
-0.09287	0.06023	0.03006
-0.09390	0.06060	0.02780
-0.09390	0.06060	0.02780
-0.09390	0.06060	0.02780
-0.09390	0.06060	0.02780
-0.09390	0.06060	0.02780
-0.09390	0.06060	0.02780
-0.09390	0.06060	0.02780
-0.09294	0.06090	0.02846
-0.09198	0.06120	0.02912
-0.09230	0.06110	0.02890
-0.09230	0.06110	0.02890
-0.09230	0.06110	0.02890
-0.09381	0.06136	0.02792
-0.09652	0.05916	0.02692
-0.09797	0.05756	0.02714
-0.09815	0.05725	0.02805
-0.09683	0.05705	0.02873
-0.09652	0.05717	0.02938
-0.09639	0.05728	0.02968
-0.09656	0.05744	0.02977
-0.09675	0.05810	0.03015
-0.09588	0.05820	0.02965
-0.09878	0.05779	0.03373
-0.10126	0.05739	0.03709
-0.10115	0.05723	0.03699
-0.10120	0.05725	0.03705
-0.10184	0.05645	0.03625
-0.10152	0.05605	0.03765
-0.10141	0.05659	0.03926
-0.10147	0.05699	0.03988
-0.10095	0.05675	0.04160
-0.10095	0.05675	0.04160
-0.10057	0.05652	0.04275
-0.10028	0.05655	0.04403
-0.09974	0.05657	0.04499
-0.09770	0.05605	0.04715
-0.09770	0.05605	0.04715
-0.09827	0.05653	0.04850
-0.09884	0.05701	0.04985
-0.09811	0.05698	0.04971
-0.09595	0.05750	0.05095
-0.09715	0.05426	0.05199
-0.09783	0.05352	0.05214
-0.09669	0.05331	0.05247
-0.09555	0.05310	0.05280
-0.09555	0.05310	0.05280
-0.09335	0.05382	0.05460
-0.09280	0.05400	0.05505
-0.09280	0.05400	0.05505
-0.09280	0.05400	0.05505
-0.09280	0.05400	0.05505
-0.09304	0.05468	0.05549
-0.09364	0.05472	0.05529
-0.09240	0.05518	0.05611
-0.09336	0.05518	0.05664
-0.09570	0.05215	0.05735
-0.09152	0.05138	0.05856
-0.09874	0.05271	0.05647
-0.10406	0.05369	0.05493
-0.10048	0.05326	0.05612
-0.09870	0.05385	0.05725
-0.09870	0.05385	0.05725
-0.09832	0.05362	0.05840
-0.09790	0.05359	0.06011
-0.09762	0.05373	0.06021
-0.09610	0.05345	0.06065
-0.09558	0.05321	0.06237
-0.09720	0.05182	0.06236
-0.09835	0.05421	0.06045
-0.09707	0.05698	0.06180
-0.09670	0.05680	0.06370
-0.09886	0.05628	0.06246
-0.09881	0.05576	0.06203
-0.09656	0.05596	0.06340
-0.09799	0.05592	0.06309
-0.10015	0.05540	0.06185
-0.10015	0.05540	0.06185
-0.09921	0.05810	0.06086
-0.09793	0.06025	0.06250
-0.09729	0.05862	0.06464
-0.09945	0.05810	0.06340
-0.09945	0.05810	0.06340
-0.09942	0.05825	0.06382
-0.09939	0.05840	0.06424
-0.09978	0.05842	0.06399
-0.09940	0.05835	0.06410
-0.09550	0.06130	0.06439
-0.10126	0.06317	0.06369
-0.10505	0.06376	0.06377
-0.10252	0.06333	0.06411
-0.10290	0.06340	0.06400
-0.10286	0.06360	0.06456
-0.10291	0.06411	0.06594
-0.10513	0.06405	0.06594
-0.10655	0.06355	0.06470
-0.10655	0.06355	0.06470
-0.10779	0.06011	0.06518
-0.10849	0.05943	0.06401
-0.10888	0.05961	0.06272
-0.10875	0.05955	0.06315
-0.10875	0.05955	0.06315
-0.10879	0.05935	0.06259
-0.10766	0.05909	0.06278
-0.10652	0.05888	0.06311
-0.10690	0.05895	0.06300
-0.10690	0.05895	0.06300
-0.10634	0.05919	0.06220
-0.10620	0.05925	0.06200
-0.10620	0.05925	0.06200
-0.10651	0.05839	0.06212
-0.10775	0.05495	0.06260
-0.10827	0.05519	0.06088
-0.10840	0.05525	0.06045
-0.10840	0.05525	0.06045
-0.10841	0.05520	0.06031
-0.10845	0.05500	0.05975
-0.10693	0.05472	0.06019
-0.10641	0.05471	0.06010
-0.10683	0.05453	0.06070
-0.10719	0.05418	0.06119
-0.10695	0.05350	0.06075
-0.10765	0.05320	0.06175
-0.10609	0.05317	0.06148
-0.10453	0.05314	0.06121
-0.10518	0.05321	0.06087
-0.10570	0.05345	0.05915
-0.10550	0.05337	0.05891
-0.10544	0.05340	0.05899
-0.10509	0.05318	0.05868
-0.10246	0.05254	0.05903
-0.10170	0.05240	0.05925
-0.11514	0.05502	0.05379
-0.11755	0.05550	0.05270
-0.11489	0.05501	0.05347
-0.11511	0.05528	0.05356
-0.11295	0.05580	0.05480
-0.11295	0.05580	0.05480
-0.11168	0.05553	0.05556
-0.11093	0.05550	0.05460
-0.11165	0.05573	0.05314
-0.11145	0.05565	0.05290
-0.10929	0.05617	0.05414
-0.10916	0.05622	0.05392
-0.10805	0.05586	0.05383
-0.10703	0.05576	0.05387
-0.10755	0.05600	0.05215
-0.10755	0.05600	0.05215
-0.10829	0.05543	0.05140
-0.10541	0.05527	0.05244
-0.10245	0.05534	0.05339
-0.10165	0.05490	0.05215
-0.09985	0.05858	0.05087
-0.09972	0.06018	0.04852
-0.09803	0.06233	0.04589
-0.09521	0.06995	0.04211
-0.09165	0.07795	0.03895
-0.08659	0.08826	0.03452
-0.09355	0.09636	0.02764
-0.09935	0.09596	0.02276
-0.09464	0.09921	0.01957
-0.08955	0.11410	0.01410
-0.08760	0.11744	0.01226
-0.08507	0.11746	0.01236
-0.08419	0.11824	0.01117
-0.08377	0.11805	0.00915
-0.08060	0.11810	0.00905
-0.08109	0.12552	0.00654
-0.07853	0.13123	0.00746
-0.07625	0.13272	0.01161
-0.07731	0.13796	0.01530
-0.07605	0.14540	0.01810
-0.07283	0.14703	0.02077
-0.06374	0.15852	0.02193
-0.06232	0.17864	0.02006
-0.06468	0.19547	0.01689
-0.05850	0.20490	0.01315
-0.05863	0.19864	0.01307
-0.05971	0.18997	0.01383
-0.05905	0.18547	0.01361
-0.05802	0.18085	0.01336
-0.05880	0.17400	0.01385
-0.06144	0.16594	0.01208
-0.05573	0.16064	0.01976
-0.04801	0.14938	0.03250
-0.04929	0.13425	0.04211
-0.05915	0.12035	0.04815
-0.06482	0.10651	0.05169
-0.06905	0.09448	0.05339
-0.07183	0.08659	0.05442
-0.07443	0.08005	0.05560
-0.07745	0.07470	0.05755
-0.07867	0.07325	0.05816
-0.08254	0.06793	0.06339
-0.08637	0.05932	0.06796
-0.08903	0.05307	0.06984
-0.09370	0.04960	0.07190
-0.09433	0.04528	0.07380
-0.10355	0.04100	0.08074
-0.11261	0.04023	0.08252
-0.11103	0.03878	0.08111
-0.11150	0.03525	0.08195
-0.12440	0.03752	0.07580
-0.12782	0.03538	0.07465
-0.12716	0.03341	0.07482
-0.12889	0.03350	0.07264
-0.12990	0.02885	0.07255
-0.13007	0.02444	0.07198
-0.13065	0.02417	0.07173
-0.13127	0.02212	0.07157
-0.13170	0.01958	0.07047
-0.13325	0.01940	0.06865
-0.13426	0.01577	0.06289
-0.13324	0.01465	0.05628
-0.13420	0.01412	0.05041
-0.13591	0.00973	0.04441
-0.13505	0.00545	0.03580
-0.13897	0.00280	0.02014
-0.14809	0.00163	0.00276
-0.15275	-0.00029	-0.01247
-0.14970	-0.00714	-0.01994
-0.14665	-0.00900	-0.02190
-0.14792	0.01944	-0.03400
-0.14004	0.04088	-0.02576
-0.11107	0.07136	-0.01595
-0.06967	0.12606	-0.01463
-0.01875	0.18170	0.00105
0.06871	0.22623	0.02850
0.15296	0.25298	0.03848
0.21984	0.27387	0.02966
0.29756	0.30215	0.01767
0.40640	0.35015	-0.00070
0.52704	0.42778	-0.04241
0.67816	0.51575	-0.07498
0.81773	0.60733	-0.11412
0.92491	0.70969	-0.18050
1.02630	0.82225	-0.24320
1.09682	0.89854	-0.25724
1.07496	0.83407	-0.26732
1.01237	0.68386	-0.25464
0.92298	0.54178	-0.19392
0.77110	0.42830	-0.10280
0.61068	0.32231	0.00710
0.42531	0.19881	0.15023
0.26138	0.09553	0.25900
0.14826	0.02181	0.30107
0.06565	-0.05180	0.31585
0.00965	-0.10150	0.31472
-0.05452	-0.13054	0.28718
-0.11271	-0.14845	0.25328
-0.13994	-0.15595	0.22923
-0.14280	-0.15140	0.20640
-0.14893	-0.15152	0.18189
-0.15011	-0.14949	0.15921
-0.14859	-0.15051	0.13820
-0.14406	-0.14507	0.11693
-0.12955	-0.12100	0.09815
-0.11309	-0.10072	0.08172
-0.10344	-0.08799	0.06601
-0.10049	-0.07922	0.05520
-0.09906	-0.06676	0.04947
-0.09635	-0.05275	0.04445
-0.09429	-0.04298	0.03792
-0.09288	-0.03267	0.03231
-0.08991	-0.02265	0.02608
-0.08772	-0.01402	0.01853
-0.08885	-0.00755	0.01280
-0.08739	-0.00394	0.01043
-0.09208	0.00027	0.00623
-0.09401	0.00406	0.00293
-0.08920	0.00656	0.00116
-0.08800	0.00930	-0.00190
-0.09244	0.01484	-0.00492
-0.09067	0.01935	-0.00708
-0.08722	0.01936	-0.00954
-0.08621	0.02007	-0.01186
-0.08445	0.02355	-0.01370
-0.08177	0.02411	-0.01382
-0.07906	0.02648	-0.01525
-0.07882	0.02747	-0.01780
-0.07736	0.02882	-0.01880
-0.07310	0.03255	-0.01985
-0.07024	0.03148	-0.02134
-0.06938	0.03002	-0.02274
-0.06878	0.03296	-0.02603
-0.06713	0.03567	-0.02898
-0.06425	0.03535	-0.03010
-0.06335	0.03477	-0.03210
-0.06340	0.03472	-0.03473
-0.06395	0.03146	-0.03808
-0.06003	0.03526	-0.04107
-0.05045	0.04920	-0.04365
-0.04549	0.05300	-0.04835
-0.04188	0.05275	-0.05056
-0.04031	0.05190	-0.05181
-0.03912	0.05138	-0.05491
-0.03680	0.05190	-0.05755
-0.03336	0.05209	-0.05871
-0.03083	0.05092	-0.06296
-0.02962	0.04977	-0.06703
-0.02805	0.04595	-0.06897
-0.02525	0.04535	-0.07430
-0.01719	0.06178	-0.08074
-0.01176	0.06979	-0.08447
-0.00861	0.06835	-0.08840
-0.00261	0.06927	-0.09390
0.00430	0.07165	-0.10060
0.00720	0.07041	-0.10602
0.01239	0.07601	-0.10837
0.01810	0.08004	-0.11057
0.02398	0.08281	-0.11662
0.03460	0.09295	-0.12440
0.04543	0.09871	-0.13272
0.05667	0.11016	-0.13812
0.06667	0.12055	-0.14545
0.07592	0.12182	-0.15652
0.08445	0.11915	-0.16585
0.08692	0.12300	-0.17681
0.09197	0.11918	-0.19019
0.10189	0.13123	-0.20021
0.11148	0.14760	-0.20576
0.12035	0.14100	-0.21270
0.14108	0.15861	-0.22653
0.15681	0.17258	-0.23860
0.16919	0.17919	-0.24929
0.17981	0.18909	-0.26104
0.18555	0.19350	-0.26870
0.19201	0.19439	-0.27808
0.20252	0.21179	-0.29150
0.21600	0.22546	-0.30095
0.23227	0.23240	-0.31036
0.25100	0.24945	-0.32800
0.26576	0.26308	-0.34083
0.27495	0.26880	-0.34923
0.28814	0.27986	-0.36117
0.29801	0.29701	-0.37737
0.30105	0.30210	-0.38905
0.31523	0.30292	-0.39723
0.32262	0.31906	-0.41186
0.32351	0.33252	-0.42581
0.33271	0.33856	-0.43185
0.35140	0.35365	-0.43685
0.35908	0.36248	-0.44751
0.36796	0.37718	-0.44898
0.37377	0.38309	-0.44371
0.36745	0.38009	-0.44105
0.35320	0.38285	-0.44295
0.35012	0.37956	-0.44090
0.34867	0.37927	-0.43665
0.34505	0.37874	-0.43388
0.33932	0.37671	-0.42840
0.33380	0.37750	-0.41540
0.32617	0.37222	-0.40080
0.30891	0.36367	-0.38827
0.29252	0.35498	-0.37418
0.27399	0.34940	-0.35537
0.24395	0.34315	-0.33540
0.22553	0.32140	-0.31089
0.20563	0.30014	-0.28823
0.18196	0.28136	-0.26874
0.16309	0.26239	-0.25089
0.14735	0.24680	-0.23190
0.13023	0.23270	-0.21125
0.11202	0.22147	-0.19222
0.09549	0.20902	-0.17363
0.07406	0.19215	-0.15734
0.04770	0.17640	-0.14410
0.03042	0.15909	-0.12929
0.01610	0.14488	-0.11705
0.00328	0.13175	-0.10375
-0.00642	0.11977	-0.08931
-0.01385	0.10995	-0.07725
-0.02136	0.10000	-0.06555
-0.02875	0.08963	-0.05323
-0.03540	0.07930	-0.04351
-0.04228	0.07335	-0.03618
-0.05010	0.07040	-0.02795
-0.05672	0.06433	-0.02096
-0.06183	0.06011	-0.01528
-0.06549	0.05549	-0.01014
-0.06887	0.04999	-0.00559
-0.07125	0.04600	-0.00340
-0.07267	0.04410	0.00052
-0.07595	0.04250	0.00503
-0.07879	0.04420	0.00668
-0.08225	0.04253	0.00790
-0.08605	0.03845	0.01070
-0.08741	0.03887	0.01404
-0.08421	0.04006	0.01794
-0.08257	0.03812	0.02109
-0.08449	0.03587	0.02408
-0.08435	0.03540	0.02695
-0.08417	0.03621	0.02806
-0.08622	0.03375	0.03009
-0.08593	0.03054	0.03371
-0.08352	0.03098	0.03506
-0.08390	0.03105	0.03495
-0.08514	0.02761	0.03543
-0.08571	0.02587	0.03561
-0.08524	0.02765	0.03555
-0.08601	0.02599	0.03597
-0.08725	0.02255	0.03645
-0.08573	0.02227	0.03689
-0.08504	0.02306	0.03688
-0.08597	0.02048	0.03724
-0.08691	0.01805	0.03765
-0.08695	0.01865	0.03785
-0.08695	0.01865	0.03785
-0.08726	0.01779	0.03797
-0.08633	0.02037	0.03761
-0.08540	0.02295	0.03725
-0.08540	0.02295	0.03725
-0.08540	0.02295	0.03725
-0.08540	0.02295	0.03725
-0.08540	0.02295	0.03725
-0.08594	0.02282	0.03694
-0.08810	0.02230	0.03570
-0.08810	0.02230	0.03570
-0.08822	0.02244	0.03573
-0.08773	0.02196	0.03607
-0.08672	0.02124	0.03813
-0.08620	0.02100	0.03985
-0.08672	0.02124	0.03813
-0.08740	0.02118	0.03787
-0.08769	0.02094	0.03890
-0.08755	0.02100	0.03870
-0.08755	0.02100	0.03870
-0.08755	0.02100	0.03870
-0.08793	0.02107	0.03859
-0.08641	0.02079	0.03903
-0.08261	0.02009	0.04013
-0.08185	0.01995	0.04035
-0.09381	0.02181	0.03785
-0.09579	0.02180	0.03777
-0.09345	0.02108	0.03870
-0.09385	0.02125	0.03850
-0.09385	0.02125	0.03850
-0.09509	0.01781	0.03898
-0.09578	0.01702	0.03899
-0.09464	0.01681	0.03932
-0.09364	0.01654	0.03985
-0.09420	0.01630	0.04065
-0.09420	0.01630	0.04065
-0.09420	0.01630	0.04065
-0.09382	0.01623	0.04076
-0.09456	0.01546	0.04083
-0.09600	0.01210	0.04155
-0.09468	0.01270	0.04299
-0.09410	0.01284	0.04303
-0.09407	0.01283	0.04449
-0.09384	0.01276	0.04646
-0.09460	0.01260	0.04750
-0.09518	0.01355	0.04839
-0.09345	0.01457	0.04921
-0.09315	0.01129	0.04926
-0.09553	0.00891	0.04889
-0.09755	0.00900	0.04820
-0.09991	0.00856	0.04720
-0.10206	0.00789	0.04591
-0.10332	0.00814	0.04562
-0.10375	0.00866	0.04627
-0.10475	0.00870	0.04755
-0.10531	0.00846	0.04835
-0.10567	0.00939	0.04850
-0.10561	0.00666	0.04937
-0.10877	0.00448	0.04901
-0.11485	0.00560	0.04725
-0.11371	0.00539	0.04758
-0.11229	0.00589	0.04737
-0.11401	0.00330	0.04709
-0.11460	0.00072	0.04776
-0.11290	0.00045	0.04855
-0.11454	-0.00031	0.04903
-0.11575	-0.00061	0.04964
-0.11503	-0.00100	0.05057
-0.11368	-0.00208	0.05093
-0.11530	-0.00545	0.05130
-0.11568	-0.00538	0.05119
-0.11431	-0.00560	0.05181
-0.11370	-0.00568	0.05221
-0.11365	-0.00570	0.05215
-0.11365	-0.00570	0.05215
-0.11390	-0.00951	0.05429
-0.11383	-0.00980	0.05668
-0.11371	-0.00920	0.05836
-0.11391	-0.00933	0.05836
-0.11475	-0.01005	0.05780
-0.11475	-0.01005	0.05780
-0.11513	-0.00998	0.05769
-0.11399	-0.01019	0.05802
-0.11299	-0.01046	0.05855
-0.11355	-0.01070	0.05935
-0.11355	-0.01070	0.05935
-0.11481	-0.01323	0.05954
-0.11475	-0.01596	0.06041
-0.11307	-0.01532	0.06091
-0.11345	-0.01525	0.06080
-0.11345	-0.01525	0.06080
-0.11291	-0.01512	0.06111
-0.11453	-0.01551	0.06018
-0.11615	-0.01590	0.05925
-0.11615	-0.01590	0.05925
-0.11653	-0.01583	0.05914
-0.11473	-0.01553	0.05942
-0.11527	-0.01656	0.06139
-0.11769	-0.01681	0.06290
-0.11695	-0.01790	0.06235
-0.11657	-0.01797	0.06246
-0.11788	-0.02048	0.06271
-0.11850	-0.02220	0.06295
-0.11850	-0.02220	0.06295
-0.11850	-0.02220	0.06295
-0.11578	-0.01924	0.06235
-0.11640	-0.01879	0.06149
-0.11822	-0.01962	0.06012
-0.11750	-0.02000	0.06010
-0.11750	-0.02000	0.06010
-0.11750	-0.02000	0.06010
-0.11750	-0.02000	0.06010
-0.11788	-0.01993	0.05999
-0.11681	-0.01921	0.06009
-0.11595	-0.01570	0.05950
-0.12697	-0.01367	0.05631
-0.12907	-0.01376	0.05532
-0.12661	-0.01469	0.05565
-0.12667	-0.01452	0.05576
-0.12515	-0.01480	0.05620
-0.12515	-0.01480	0.05620
-0.12359	-0.01483	0.05593
-0.12272	-0.01565	0.05567
-0.12439	-0.02092	0.05676
-0.12555	-0.02800	0.05840
-0.12710	-0.03230	0.05900
-0.12655	-0.02965	0.05853
-0.12448	-0.02728	0.05850
-0.12365	-0.02835	0.05895
-0.12365	-0.02835	0.05895
-0.12213	-0.02863	0.05939
-0.12175	-0.02870	0.05950
-0.12099	-0.02884	0.05972
-0.12039	-0.02918	0.05974
-0.12255	-0.02970	0.05850
-0.12103	-0.02998	0.05894
-0.12027	-0.03012	0.05916
-0.12065	-0.03005	0.05905
-0.12027	-0.03012	0.05916
-0.11875	-0.03040	0.05960
-0.11751	-0.02696	0.05912
-0.11666	-0.02597	0.05931
-0.11828	-0.02636	0.05838
-0.11990	-0.02675	0.05745
-0.12180	-0.02640	0.05690
-0.12826	-0.02521	0.05503
-0.12889	-0.02513	0.05524
-0.12738	-0.02530	0.05450
-0.12815	-0.02505	0.05310
-0.12815	-0.02505	0.05310
-0.12815	-0.02505	0.05310
-0.12800	-0.02511	0.05292
-0.12754	-0.02431	0.05262
-0.12853	-0.02611	0.05270
-0.13070	-0.03460	0.05345
-0.13073	-0.03918	0.05449
-0.12942	-0.03667	0.05424
-0.12887	-0.03402	0.05377
-0.12880	-0.03495	0.05400
-0.12880	-0.03495	0.05400
-0.12864	-0.03523	0.05320
-0.12900	-0.03517	0.05157
-0.12937	-0.03489	0.05056
-0.12888	-0.03512	0.05082
-0.12740	-0.03560	0.05070
-0.12740	-0.03560	0.05070
-0.12776	-0.03624	0.05107
-0.12668	-0.03432	0.04996
-0.12555	-0.03242	0.04879
-0.12535	-0.03250	0.04855
-0.12535	-0.03250	0.04855
-0.12538	-0.03265	0.04813
-0.12541	-0.03280	0.04771
-0.12502	-0.03282	0.04796
-0.12350	-0.03310	0.04840
-0.12406	-0.03306	0.04612
-0.12418	-0.03274	0.04352
-0.12396	-0.03301	0.04137
-0.12334	-0.03087	0.03881
-0.11850	-0.02275	0.03615
-0.11406	-0.01583	0.03263
-0.12123	-0.00651	0.02598
-0.12617	0.00176	0.01895
-0.12105	0.00774	0.01413
-0.11615	0.01465	0.01030
-0.11396	0.01773	0.00661
-0.11373	0.02040	0.00105
-0.11128	0.02442	-0.00193
-0.10890	0.02770	-0.00422
-0.10910	0.02695	-0.00665
-0.10311	0.02994	-0.00051
-0.09850	0.03340	0.00352
-0.09536	0.03335	0.00856
-0.08977	0.03340	0.01707
-0.08755	0.04065	0.02075
-0.09915	0.04638	0.01929
-0.10024	0.05026	0.02038
-0.08999	0.05298	0.02318
-0.08730	0.06961	0.01925
-0.08995	0.10500	0.01065
-0.07844	0.12586	0.00970
-0.07485	0.11961	0.01278
-0.07623	0.10773	0.01601
-0.07474	0.10102	0.01738
-0.07460	0.09345	0.01855
-0.07312	0.08309	0.02211
-0.07287	0.07428	0.02445
-0.07500	0.06897	0.02547
-0.07388	0.06009	0.03269
-0.07180	0.04925	0.04325
-0.07294	0.04332	0.04630
-0.07433	0.03742	0.04660
-0.07478	0.02719	0.04851
-0.07919	0.01795	0.05013
-0.08720	0.01090	0.04995
-0.09225	0.00278	0.04830
-0.10092	-0.00540	0.05212
-0.11000	-0.01395	0.05668
-0.11232	-0.02065	0.05873
-0.11255	-0.02760	0.06195
-0.11782	-0.03430	0.06397
-0.12103	-0.04057	0.06775
-0.12399	-0.04734	0.07037
-0.12709	-0.05359	0.07200
-0.12890	-0.05705	0.07390
-0.13250	-0.06013	0.07414
-0.13630	-0.06350	0.07385
-0.13768	-0.06574	0.07398
-0.13771	-0.06455	0.07361
-0.13770	-0.06450	0.07375
-0.13742	-0.06822	0.07467
-0.13785	-0.06939	0.07417
-0.13856	-0.06684	0.07275
-0.13829	-0.06896	0.07345
-0.13800	-0.07290	0.07375
-0.13980	-0.07298	0.07223
-0.14154	-0.07362	0.07113
-0.14410	-0.07346	0.06515
-0.14858	-0.07605	0.05836
-0.15395	-0.08425	0.05495
-0.15621	-0.08944	0.04089
-0.16435	-0.08722	0.01924
-0.17020	-0.08007	0.00099
-0.17229	-0.07385	-0.01183
-0.17505	-0.07050	-0.02345
-0.16729	-0.06553	-0.02679
-0.15544	-0.05531	-0.03071
-0.15200	-0.05604	-0.02677
-0.14793	-0.04221	-0.02425
-0.12325	0.01045	-0.02985
-0.06893	0.05444	-0.01010
0.01167	0.09819	0.00353
0.09792	0.14018	0.01559
0.17673	0.17637	0.02562
0.25595	0.20915	0.01525
0.35509	0.24716	-0.00481
0.47397	0.31534	-0.02236
0.61037	0.39235	-0.04694
0.74881	0.48133	-0.09072
0.86970	0.59680	-0.15230
0.97377	0.69035	-0.21331
1.06475	0.77908	-0.25139
1.07762	0.80900	-0.28593
1.02729	0.70930	-0.27976
0.96685	0.52665	-0.19870
0.82833	0.41573	-0.12951
0.67114	0.31474	-0.02298
0.48148	0.18338	0.11753
0.28697	0.05472	0.23400
0.15790	-0.03210	0.29160
0.06838	-0.09648	0.31392
-0.00353	-0.14754	0.30577
-0.07398	-0.20029	0.29118
-0.12730	-0.23062	0.27244
-0.14850	-0.22005	0.23975
-0.17062	-0.21561	0.21223
-0.17806	-0.21615	0.19067
-0.17466	-0.21765	0.16998
-0.17434	-0.21886	0.14823
-0.17385	-0.21895	0.13055
-0.15887	-0.21964	0.12044
-0.14404	-0.20475	0.10631
-0.13036	-0.18375	0.09602
-0.12032	-0.16958	0.08701
-0.11370	-0.15945	0.07205
-0.10344	-0.14883	0.06173
-0.09978	-0.13825	0.05513
-0.09897	-0.12830	0.05097
-0.09757	-0.11954	0.04546
-0.09900	-0.11340	0.03780
-0.10012	-0.10720	0.03272
-0.09932	-0.10015	0.02721
-0.09710	-0.09353	0.02373
-0.09657	-0.08729	0.01994
-0.09565	-0.08005	0.01490
-0.09301	-0.07645	0.01342
-0.09149	-0.07255	0.01029
-0.09376	-0.07074	0.00626
-0.09211	-0.07028	0.00437
-0.08505	-0.06735	0.00260
-0.08181	-0.06824	0.00323
-0.08006	-0.06984	-0.00041
-0.07651	-0.06713	-0.00390
-0.07342	-0.06436	-0.00440
-0.07240	-0.06525	-0.00655
-0.07038	-0.06282	-0.00950
-0.06767	-0.06092	-0.01087
-0.06604	-0.06260	-0.01142
-0.06526	-0.06141	-0.01443
-0.06350	-0.05765	-0.01935
-0.06110	-0.05753	-0.02163
-0.05896	-0.05584	-0.02442
-0.05685	-0.05339	-0.02737
-0.05597	-0.05433	-0.02970
-0.05505	-0.05525	-0.03230
-0.05118	-0.05123	-0.03284
-0.04696	-0.04957	-0.03497
-0.04365	-0.05059	-0.03665
-0.04086	-0.05019	-0.03788
-0.03855	-0.04800	-0.04190
-0.03403	-0.04504	-0.04398
-0.02891	-0.04212	-0.04586
-0.02630	-0.03905	-0.04856
-0.02357	-0.03575	-0.05098
-0.01845	-0.03235	-0.05330
-0.01465	-0.03306	-0.05702
-0.01248	-0.03104	-0.05970
-0.00878	-0.02851	-0.06257
-0.00361	-0.02558	-0.06787
-0.00025	-0.02215	-0.07375
0.00325	-0.01855	-0.07542
0.00858	-0.01479	-0.08942
0.01196	-0.01456	-0.09907
0.01525	-0.01438	-0.10142
0.02390	-0.00820	-0.11050
0.03302	-0.00184	-0.11522
0.04074	0.00431	-0.11823
0.04587	0.01017	-0.12468
0.05286	0.01638	-0.13104
0.06195	0.02255	-0.13450
0.06944	0.02863	-0.14345
0.07491	0.02868	-0.15679
0.07984	0.02572	-0.16655
0.09053	0.03021	-0.17246
0.10545	0.04780	-0.18225
0.11718	0.06079	-0.19178
0.12489	0.06699	-0.20105
0.13171	0.07205	-0.21416
0.14228	0.08439	-0.22870
0.15975	0.10090	-0.23680
0.17343	0.10475	-0.24600
0.17857	0.10364	-0.25998
0.19096	0.11346	-0.27170
0.21071	0.13032	-0.28204
0.22450	0.13785	-0.29575
0.23912	0.14748	-0.30390
0.24709	0.16304	-0.31347
0.25742	0.18114	-0.32525
0.26983	0.19027	-0.33751
0.27815	0.19500	-0.34930
0.29697	0.20831	-0.35742
0.30529	0.21303	-0.36822
0.31141	0.22531	-0.38110
0.32170	0.24405	-0.39119
0.32695	0.24755	-0.39865
0.33977	0.24968	-0.40537
0.35124	0.26174	-0.40988
0.35699	0.27192	-0.41255
0.36073	0.27273	-0.41524
0.36450	0.27300	-0.41820
0.36423	0.28166	-0.41785
0.35978	0.28525	-0.41644
0.35322	0.30024	-0.41836
0.34682	0.31353	-0.41593
0.33790	0.29975	-0.40825
0.32631	0.28878	-0.40965
0.31739	0.27645	-0.39577
0.30579	0.26641	-0.37858
0.28975	0.25819	-0.36514
0.27365	0.24625	-0.34650
0.25804	0.23487	-0.33057
0.23954	0.22246	-0.30964
0.21925	0.21444	-0.28874
0.19567	0.20361	-0.27072
0.16775	0.17705	-0.24855
0.14505	0.15442	-0.22894
0.12458	0.13798	-0.21243
0.10463	0.12267	-0.19640
0.08657	0.10716	-0.17977
0.06910	0.09565	-0.16440
0.05158	0.08665	-0.15052
0.03485	0.07390	-0.13434
0.01641	0.06052	-0.11853
-0.00141	0.04738	-0.10485
-0.01615	0.03385	-0.09325
-0.02857	0.02192	-0.08228
-0.03610	0.01210	-0.06839
-0.04200	0.00569	-0.05669
-0.04860	-0.00095	-0.04811
-0.05680	-0.00795	-0.04075
-0.06234	-0.01818	-0.03408
-0.06753	-0.02703	-0.02844
-0.07579	-0.03312	-0.02280
-0.08397	-0.03766	-0.01581
-0.08865	-0.04520	-0.00915
-0.09305	-0.04955	-0.00490
-0.09637	-0.05252	-0.00087
-0.09620	-0.05572	0.00306
-0.09840	-0.05954	0.00464
-0.10295	-0.06265	0.00630
-0.10298	-0.06209	0.00752
-0.10315	-0.06437	0.01069
-0.10596	-0.06741	0.01307
-0.10822	-0.06645	0.01312
-0.10810	-0.06545	0.01300
-0.10856	-0.06624	0.01255
-0.11005	-0.06878	0.01308
-0.11203	-0.07147	0.01324
-0.11351	-0.07125	0.01185
-0.11145	-0.07140	0.01260
-0.10873	-0.07092	0.01612
-0.10804	-0.07075	0.01714
-0.10806	-0.07085	0.01686
-0.10766	-0.07082	0.01725
-0.10610	-0.07090	0.01825
-0.10610	-0.07090	0.01825
-0.10611	-0.07095	0.01811
-0.10608	-0.07080	0.01853
-0.10605	-0.07065	0.01895
-0.10605	-0.07065	0.01895
-0.10605	-0.07065	0.01895
-0.10606	-0.07070	0.01881
-0.10603	-0.07055	0.01923
-0.10564	-0.07119	0.02051
-0.10420	-0.07435	0.02395
-0.10420	-0.07435	0.02395
-0.10420	-0.07435	0.02395
-0.10344	-0.07449	0.02417
-0.10230	-0.07470	0.02450
-0.10230	-0.07470	0.02450
-0.10230	-0.07470	0.02450
-0.10285	-0.07482	0.02467
-0.10288	-0.07518	0.02656
-0.10229	-0.07547	0.02754
-0.10205	-0.07615	0.02710
-0.10205	-0.07615	0.02710
-0.10137	-0.07596	0.02721
-0.10341	-0.07653	0.02688
-0.10545	-0.07710	0.02655
-0.10545	-0.07710	0.02655
-0.10545	-0.07710	0.02655
-0.10371	-0.08028	0.02886
-0.10114	-0.08453	0.03162
-0.09751	-0.08158	0.03168
-0.09410	-0.07980	0.03300
-0.09865	-0.09838	0.03596
-0.10114	-0.09956	0.03676
-0.10077	-0.09393	0.03671
-0.10120	-0.09445	0.03705
-0.10120	-0.09445	0.03705
-0.10268	-0.09397	0.03717
-0.10339	-0.09507	0.03921
-0.10249	-0.09285	0.04074
-0.10155	-0.09015	0.03975
-0.10345	-0.08980	0.03920
-0.10345	-0.08980	0.03920
-0.10307	-0.08987	0.03931
-0.10421	-0.08966	0.03898
-0.10586	-0.08939	0.03888
-0.10600	-0.08950	0.04035
-0.10458	-0.08605	0.04022
-0.10602	-0.08438	0.04005
-0.10734	-0.08366	0.04005
-0.10690	-0.08390	0.04005
-0.10690	-0.08390	0.04005
-0.11096	-0.08407	0.03826
-0.11100	-0.08185	0.03805
-0.11046	-0.07930	0.03871
-0.11098	-0.07988	0.03894
-0.11250	-0.07960	0.03850
-0.11250	-0.07960	0.03850
-0.11292	-0.07978	0.03910
-0.11334	-0.07996	0.03970
-0.11312	-0.08078	0.03987
-0.11280	-0.08430	0.04135
-0.11304	-0.08362	0.04179
-0.11458	-0.08378	0.04077
-0.11662	-0.08435	0.04044
-0.11637	-0.08446	0.04178
-0.11585	-0.08470	0.04350
-0.11705	-0.08794	0.04454
-0.11772	-0.08863	0.04483
-0.11660	-0.08894	0.04488
-0.11558	-0.08911	0.04569
-0.11610	-0.08915	0.04705
-0.11610	-0.08915	0.04705
-0.11699	-0.09180	0.04721
-0.11804	-0.09417	0.04817
-0.11785	-0.09310	0.04865
-0.11785	-0.09310	0.04865
-0.11819	-0.09283	0.04910
-0.11650	-0.09214	0.04974
-0.11642	-0.09477	0.05089
-0.11803	-0.09708	0.05139
-0.11765	-0.09715	0.05150
-0.11785	-0.09707	0.05174
-0.11782	-0.09702	0.05152
-0.11811	-0.09709	0.05242
-0.11891	-0.09794	0.05368
-0.12035	-0.10130	0.05440
-0.12073	-0.10123	0.05429
-0.11916	-0.10153	0.05467
-0.11855	-0.10161	0.05507
-0.11869	-0.10150	0.05539
-0.11865	-0.10130	0.05595
-0.11757	-0.10104	0.05657
-0.12523	-0.10319	0.05315
-0.12877	-0.10422	0.05245
-0.12581	-0.10332	0.05406
-0.12635	-0.10345	0.05375
-0.12551	-0.10721	0.05695
-0.12559	-0.10839	0.05878
-0.12627	-0.10845	0.05852
-0.12533	-0.10838	0.05949
-0.12265	-0.10810	0.06245
-0.12247	-0.10861	0.06212
-0.12199	-0.10997	0.06124
-0.12265	-0.10810	0.06245
-0.12336	-0.10539	0.06389
-0.12200	-0.10645	0.06195
-0.12194	-0.10662	0.06184
-0.12053	-0.10600	0.06306
-0.11906	-0.10555	0.06417
-0.11954	-0.10565	0.06394
-0.11950	-0.10545	0.06450
-0.12002	-0.10521	0.06278
-0.12069	-0.10528	0.06204
-0.11907	-0.10489	0.06297
-0.11783	-0.10443	0.06379
-0.11935	-0.10415	0.06335
-0.11935	-0.10415	0.06335
-0.11928	-0.10404	0.06389
-0.11949	-0.10437	0.06227
-0.11970	-0.10470	0.06065
-0.11970	-0.10470	0.06065
-0.11990	-0.10462	0.06089
-0.11995	-0.10460	0.06095
-0.11995	-0.10460	0.06095
-0.11994	-0.10448	0.06032
-0.11990	-0.10400	0.05780
-0.11990	-0.10400	0.05780
-0.11952	-0.10407	0.05791
-0.12066	-0.10386	0.05758
-0.12180	-0.10365	0.05725
-0.12180	-0.10365	0.05725
-0.12124	-0.10341	0.05645
-0.12089	-0.10302	0.05787
-0.12068	-0.10269	0.05949
-0.12075	-0.10280	0.05895
-0.12075	-0.10280	0.05895
-0.12075	-0.10280	0.05895
-0.12102	-0.10280	0.05872
-0.12021	-0.10280	0.05941
-0.11934	-0.10297	0.05999
-0.11910	-0.10365	0.05955
-0.11796	-0.10386	0.05988
-0.12632	-0.10232	0.05746
-0.13126	-0.10141	0.05603
-0.12757	-0.10204	0.05725
-0.12535	-0.10225	0.05850
-0.12383	-0.10253	0.05894
-0.12285	-0.10294	0.05907
-0.11971	-0.10283	0.06044
-0.11657	-0.10272	0.06181
-0.11505	-0.10300	0.06225
-0.11349	-0.10308	0.06325
-0.11331	-0.10607	0.06479
-0.11300	-0.10905	0.06599
-0.11100	-0.10767	0.06639
-0.10880	-0.10475	0.06715
-0.11032	-0.10447	0.06671
-0.11163	-0.10445	0.06666
-0.11128	-0.10488	0.06866
-0.11061	-0.10494	0.06955
-0.11005	-0.10470	0.06875
-0.11195	-0.10435	0.06820
-0.10940	-0.10138	0.06877
-0.10685	-0.09841	0.06934
-0.10769	-0.09935	0.06929
-0.10765	-0.09915	0.06985
-0.10897	-0.09895	0.06917
-0.10921	-0.09949	0.06881
-0.10871	-0.09978	0.06800
-0.10794	-0.09861	0.06727
-0.10650	-0.09525	0.06655
-0.10588	-0.09600	0.06622
-0.10773	-0.09571	0.06438
-0.10875	-0.09545	0.06330
-0.10883	-0.09541	0.06281
-0.10915	-0.09525	0.06085
-0.10644	-0.09455	0.06153
-0.10885	-0.09911	0.06043
-0.11281	-0.10741	0.05924
-0.11413	-0.11199	0.05912
-0.11310	-0.10745	0.05680
-0.11074	-0.10781	0.05704
-0.10960	-0.10529	0.05540
-0.10847	-0.10341	0.05428
-0.10653	-0.10332	0.05335
-0.10405	-0.10060	0.05115
-0.10045	-0.10076	0.05171
-0.09768	-0.09639	0.04897
-0.09542	-0.08825	0.04504
-0.09346	-0.08153	0.04171
-0.09180	-0.07505	0.03570
-0.09069	-0.06767	0.03104
-0.08643	-0.06015	0.02714
-0.08295	-0.05288	0.02491
-0.08229	-0.04613	0.02180
-0.08115	-0.04360	0.01620
-0.08449	-0.04248	0.00974
-0.08190	-0.04286	0.01179
-0.07898	-0.04348	0.01705
-0.07954	-0.04388	0.01925
-0.07770	-0.04480	0.02145
-0.07958	-0.04600	0.02535
-0.07707	-0.04138	0.02689
-0.07751	-0.03401	0.02855
-0.07998	-0.02684	0.03014
-0.07900	-0.01980	0.02785
-0.08003	-0.01250	0.02533
-0.07874	-0.00516	0.02536
-0.08312	0.00313	0.02315
-0.08786	0.01134	0.02010
-0.08120	0.01745	0.02035
-0.07499	0.02456	0.02026
-0.07370	0.02112	0.02178
-0.07316	0.01511	0.02401
-0.07230	0.01001	0.02525
-0.07390	0.00205	0.02585
-0.07313	0.00011	0.02610
-0.07682	-0.01987	0.03305
-0.08397	-0.04613	0.04354
-0.08927	-0.06244	0.04936
-0.09075	-0.06875	0.04940
-0.09182	-0.06977	0.05056
-0.09039	-0.06784	0.05174
-0.09218	-0.07360	0.05286
-0.09602	-0.08278	0.05564
-0.09650	-0.08420	0.05865
-0.10073	-0.08659	0.05946
-0.10543	-0.09561	0.06300
-0.11405	-0.10713	0.06530
-0.12201	-0.11435	0.06497
-0.12255	-0.11815	0.06775
-0.12775	-0.13547	0.07523
-0.12907	-0.14403	0.08011
-0.12638	-0.14356	0.08051
-0.12465	-0.14605	0.08034
-0.12285	-0.15005	0.08170
-0.11923	-0.15076	0.08245
-0.11890	-0.15385	0.08258
-0.12121	-0.15556	0.08208
-0.12365	-0.15656	0.08055
-0.12685	-0.16060	0.07955
-0.12957	-0.16136	0.07911
-0.13018	-0.16057	0.07741
-0.13122	-0.16309	0.07673
-0.13232	-0.16551	0.07718
-0.13255	-0.16505	0.07700
-0.13218	-0.16567	0.07727
-0.13395	-0.16715	0.07271
-0.13830	-0.16955	0.06352
-0.14349	-0.16997	0.05133
-0.14875	-0.16955	0.03570
-0.15401	-0.16963	0.01537
-0.16387	-0.16365	0.00404
-0.16380	-0.15821	-0.00912
-0.15553	-0.15366	-0.02252
-0.15355	-0.14930	-0.02480
-0.14896	-0.15069	-0.03234
-0.13979	-0.11434	-0.02622
-0.10668	-0.06381	-0.01936
-0.04614	-0.02120	-0.01429
0.02890	0.02780	0.00210
0.12021	0.07781	0.01817
0.19187	0.10421	0.02396
0.26643	0.12365	0.02006
0.36743	0.16614	0.01026
0.49280	0.23220	-0.01010
0.64711	0.31207	-0.05286
0.79029	0.42284	-0.08984
0.90449	0.55356	-0.14544
1.00443	0.66687	-0.21616
1.09755	0.73745	-0.25625
1.14547	0.74728	-0.25926
1.09614	0.62220	-0.24409
0.98920	0.46128	-0.19164
0.85685	0.34582	-0.11027
0.68440	0.23550	-0.01195
0.48755	0.10999	0.13268
0.30075	-0.01494	0.22635
0.15102	-0.10327	0.26974
0.05777	-0.15876	0.29828
0.00360	-0.21030	0.30830
-0.06903	-0.25428	0.29097
-0.13017	-0.27568	0.24757
-0.15522	-0.28402	0.21779
-0.16178	-0.29413	0.20100
-0.16795	-0.30075	0.17095
-0.16557	-0.29893	0.15672
-0.16173	-0.29571	0.14303
-0.16436	-0.29301	0.12537
-0.16359	-0.29279	0.10854
-0.15015	-0.29025	0.09520
-0.13798	-0.26919	0.08075
-0.12781	-0.24838	0.07081
-0.12049	-0.23637	0.06503
-0.11608	-0.22769	0.05949
-0.11275	-0.21980	0.05435
-0.10880	-0.20957	0.05001
-0.10480	-0.20192	0.04559
-0.10241	-0.19459	0.04076
-0.10224	-0.18904	0.03577
-0.10100	-0.18660	0.03125
-0.09660	-0.17952	0.02793
-0.09457	-0.17592	0.02371
-0.09283	-0.17142	0.01917
-0.09083	-0.16584	0.01476
-0.08955	-0.16320	0.01080
-0.08639	-0.15956	0.00796
-0.08541	-0.15906	0.00579
-0.08379	-0.15781	0.00380
-0.08283	-0.15550	0.00164
-0.08415	-0.15610	0.00020
-0.08027	-0.15230	-0.00096
-0.07852	-0.15214	-0.00182
-0.07909	-0.15196	-0.00486
-0.07652	-0.14727	-0.00805
-0.07430	-0.14380	-0.01020
-0.07439	-0.14425	-0.01146
-0.07290	-0.14220	-0.01331
-0.07156	-0.14107	-0.01490
-0.07123	-0.14140	-0.01619
-0.06775	-0.13660	-0.01900
-0.06586	-0.13227	-0.02131
-0.06470	-0.13312	-0.02341
-0.06376	-0.13155	-0.02653
-0.06242	-0.12833	-0.02865
-0.05900	-0.12885	-0.03000
-0.05633	-0.12702	-0.03506
-0.05131	-0.12370	-0.03679
-0.05004	-0.11925	-0.04308
-0.05092	-0.11536	-0.05244
-0.04620	-0.11195	-0.05415
-0.04348	-0.10881	-0.05849
-0.04103	-0.10620	-0.06266
-0.02982	-0.10484	-0.06187
-0.01647	-0.10297	-0.06202
-0.01340	-0.09895	-0.07045
-0.00913	-0.09698	-0.07450
-0.00430	-0.09414	-0.07480
-0.00015	-0.09031	-0.08045
0.00489	-0.09000	-0.08818
0.01180	-0.09060	-0.09005
0.01760	-0.08452	-0.09589
0.02317	-0.08034	-0.10020
0.02716	-0.07935	-0.10408
0.03227	-0.07502	-0.11010
0.04025	-0.07000	-0.11775
0.04665	-0.06704	-0.12463
0.05269	-0.06477	-0.12736
0.06296	-0.05700	-0.13391
0.07255	-0.04691	-0.14390
0.07855	-0.04270	-0.15000
0.09092	-0.03777	-0.16138
0.10122	-0.03240	-0.17281
0.10676	-0.02648	-0.18011
0.11618	-0.02042	-0.18843
0.13375	-0.01520	-0.20045
0.14515	-0.00867	-0.20947
0.15847	-0.00858	-0.21226
0.17470	0.00330	-0.22624
0.18845	0.02591	-0.24645
0.19740	0.03635	-0.25570
0.20721	0.04093	-0.26771
0.21514	0.04917	-0.28096
0.22598	0.05966	-0.28840
0.24124	0.06915	-0.29477
0.25455	0.07700	-0.30510
0.26713	0.08958	-0.31352
0.28037	0.10454	-0.32187
0.28855	0.11471	-0.33954
0.29765	0.11942	-0.35697
0.31345	0.12545	-0.36425
0.32364	0.13076	-0.37538
0.32896	0.14247	-0.38423
0.34256	0.15651	-0.39049
0.35616	0.16993	-0.39731
0.35945	0.17985	-0.40450
0.37098	0.18284	-0.41610
0.37399	0.19347	-0.41776
0.36962	0.20239	-0.41519
0.36531	0.20611	-0.41750
0.35995	0.21095	-0.42310
0.35436	0.20489	-0.42018
0.34495	0.20315	-0.41199
0.33814	0.20047	-0.40337
0.33141	0.19612	-0.39386
0.31650	0.19465	-0.38220
0.30465	0.19016	-0.36862
0.29044	0.18914	-0.35374
0.27555	0.18251	-0.33976
0.25788	0.17023	-0.32561
0.23375	0.15915	-0.30890
0.21235	0.14096	-0.29093
0.18737	0.12334	-0.27427
0.16251	0.10605	-0.25281
0.14085	0.09181	-0.23100
0.12040	0.07900	-0.21295
0.09876	0.06065	-0.19112
0.07826	0.03961	-0.17066
0.06187	0.02418	-0.15270
0.04579	0.01318	-0.13830
0.02700	0.00020	-0.12640
0.01279	-0.01280	-0.11226
-0.00219	-0.02415	-0.10056
-0.01745	-0.04119	-0.08774
-0.02548	-0.05265	-0.07443
-0.03130	-0.05070	-0.06620
-0.04635	-0.07182	-0.05529
-0.05459	-0.08581	-0.04453
-0.06021	-0.08746	-0.03796
-0.06713	-0.09223	-0.03143
-0.07125	-0.09895	-0.02195
-0.07405	-0.10132	-0.01388
-0.08245	-0.10253	-0.00961
-0.08213	-0.10487	-0.00380
-0.07874	-0.11236	0.00177
-0.08955	-0.12205	0.00155
-0.09541	-0.12481	0.00508
-0.09027	-0.12992	0.01322
-0.08996	-0.13384	0.01682
-0.09661	-0.13616	0.01725
-0.09805	-0.13730	0.01875
-0.09905	-0.13598	0.02099
-0.09967	-0.13491	0.02156
-0.09960	-0.13494	0.02364
-0.09960	-0.13515	0.02595
-0.09960	-0.13515	0.02595
-0.10100	-0.13831	0.02723
-0.10087	-0.13920	0.02870
-0.10080	-0.13960	0.03047
-0.10145	-0.13968	0.03076
-0.10165	-0.13960	0.03100
-0.10113	-0.13984	0.03272
-0.10088	-0.14001	0.03344
-0.10101	-0.13978	0.03288
-0.10071	-0.13987	0.03418
-0.10075	-0.14035	0.03670
-0.10075	-0.14035	0.03670
-0.10076	-0.14040	0.03656
-0.10073	-0.14025	0.03698
-0.10057	-0.14016	0.03783
-0.10005	-0.14040	0.03955
-0.09945	-0.13996	0.03931
-0.09899	-0.13899	0.03913
-0.09992	-0.14157	0.03949
-0.10072	-0.14421	0.04028
-0.10020	-0.14445	0.04200
-0.10296	-0.14761	0.04204
-0.10363	-0.14840	0.04144
-0.10371	-0.15036	0.04279
-0.10423	-0.15403	0.04473
-0.10430	-0.15310	0.04450
-0.10458	-0.14938	0.04358
-0.10465	-0.14845	0.04335
-0.10439	-0.14857	0.04421
-0.10400	-0.14875	0.04550
-0.10400	-0.14875	0.04550
-0.10552	-0.14847	0.04506
-0.10564	-0.14852	0.04581
-0.10668	-0.14804	0.04237
-0.10785	-0.14750	0.03850
-0.10720	-0.14780	0.04065
-0.10652	-0.14738	0.04175
-0.11606	-0.14900	0.03713
-0.12103	-0.14968	0.03469
-0.11710	-0.14811	0.03654
-0.11640	-0.14480	0.03575
-0.11602	-0.14487	0.03586
-0.11740	-0.14453	0.03522
-0.11858	-0.14457	0.03560
-0.11900	-0.14475	0.03620
-0.11900	-0.14475	0.03620
-0.11866	-0.14502	0.03575
-0.12032	-0.14473	0.03474
-0.11499	-0.14582	0.03746
-0.10866	-0.14718	0.04071
-0.11150	-0.14700	0.04085
-0.11150	-0.14700	0.04085
-0.11006	-0.14610	0.04211
-0.10831	-0.14434	0.04325
-0.10693	-0.13948	0.04211
-0.10755	-0.14120	0.04235
-0.11349	-0.15897	0.04421
-0.11394	-0.16176	0.04392
-0.11341	-0.15665	0.04467
-0.11505	-0.15628	0.04701
-0.11465	-0.15625	0.04740
-0.11465	-0.15625	0.04740
-0.11456	-0.15606	0.04540
-0.11471	-0.15519	0.04384
-0.11490	-0.15480	0.04480
-0.11490	-0.15480	0.04480
-0.11544	-0.15195	0.04319
-0.11705	-0.15088	0.04212
-0.11889	-0.15097	0.04279
-0.11949	-0.15146	0.04430
-0.12005	-0.15170	0.04510
-0.12051	-0.15198	0.04578
-0.12095	-0.15169	0.04733
-0.12279	-0.15176	0.04660
-0.12434	-0.15128	0.04594
-0.12390	-0.14740	0.04670
-0.12391	-0.14745	0.04656
-0.12388	-0.14653	0.04767
-0.12441	-0.14585	0.04958
-0.12488	-0.14604	0.04992
-0.12540	-0.14580	0.04820
-0.12756	-0.14632	0.04696
-0.12810	-0.14645	0.04665
-0.12810	-0.14645	0.04665
-0.12841	-0.14731	0.04677
-0.12965	-0.15075	0.04725
-0.13085	-0.15399	0.04829
-0.13154	-0.15725	0.04922
-0.13378	-0.15936	0.04853
-0.13540	-0.15975	0.04760
-0.13540	-0.15975	0.04760
-0.13596	-0.15999	0.04840
-0.13607	-0.15990	0.04902
-0.13604	-0.15975	0.04944
-0.13605	-0.15980	0.04930
-0.13605	-0.15980	0.04930
-0.13729	-0.16324	0.04978
-0.13747	-0.16409	0.04956
-0.13786	-0.16412	0.05058
-0.13825	-0.16415	0.05160
-0.13825	-0.16415	0.05160
-0.13845	-0.16407	0.05184
-0.13850	-0.16405	0.05190
-0.13812	-0.16412	0.05201
-0.13919	-0.16484	0.05191
-0.14195	-0.16800	0.05195
-0.14233	-0.16793	0.05184
-0.14100	-0.16876	0.05302
-0.14157	-0.16924	0.05365
-0.14290	-0.16880	0.05300
-0.14290	-0.16880	0.05300
-0.14442	-0.16852	0.05256
-0.13340	-0.17055	0.05575
-0.12694	-0.17174	0.05762
-0.13005	-0.17025	0.05651
-0.12805	-0.16695	0.05625
-0.12805	-0.16695	0.05625
-0.12805	-0.16695	0.05625
-0.12805	-0.16695	0.05625
-0.12805	-0.16695	0.05625
-0.12805	-0.16695	0.05625
-0.12657	-0.16419	0.05533
-0.12620	-0.16350	0.05510
-0.12620	-0.16350	0.05510
-0.12620	-0.16350	0.05510
-0.12620	-0.16350	0.05510
-0.12578	-0.16337	0.05577
-0.12807	-0.16406	0.05625
-0.12855	-0.16151	0.05598
-0.12657	-0.15907	0.05546
-0.12695	-0.15900	0.05535
-0.12695	-0.15900	0.05535
-0.12678	-0.15879	0.05557
-0.12717	-0.15882	0.05659
-0.12722	-0.15808	0.05747
-0.12570	-0.15420	0.05915
-0.12570	-0.15420	0.05915
-0.12569	-0.15415	0.05929
-0.12572	-0.15430	0.05887
-0.12552	-0.15394	0.05951
-0.12480	-0.15290	0.06095
-0.12452	-0.15219	0.06041
-0.12666	-0.15853	0.06072
-0.12900	-0.16399	0.06203
-0.12980	-0.16520	0.06260
-0.12980	-0.16520	0.06260
-0.12980	-0.16520	0.06260
-0.12980	-0.16520	0.06260
-0.12980	-0.16520	0.06260
-0.12980	-0.16520	0.06260
-0.12980	-0.16520	0.06260
-0.12980	-0.16520	0.06260
-0.13012	-0.16475	0.06313
-0.12988	-0.16406	0.06286
-0.12941	-0.16410	0.06201
-0.12945	-0.16430	0.06145
-0.12965	-0.16422	0.06169
-0.12970	-0.16420	0.06175
-0.12970	-0.16420	0.06175
-0.12970	-0.16420	0.06175
-0.12970	-0.16420	0.06175
-0.12950	-0.16428	0.06151
-0.12928	-0.16470	0.05994
-0.13063	-0.16482	0.05799
-0.13170	-0.16450	0.05820
-0.13170	-0.16450	0.05820
-0.13156	-0.16444	0.05800
-0.13294	-0.16511	0.06016
-0.13352	-0.16562	0.06056
-0.13276	-0.16539	0.05900
-0.13290	-0.16545	0.05920
-0.13088	-0.16499	0.06064
-0.12948	-0.16185	0.05935
-0.13037	-0.15924	0.05716
-0.12931	-0.15999	0.05815
-0.12695	-0.15955	0.05915
-0.12515	-0.15587	0.05787
-0.12459	-0.15504	0.05693
-0.12490	-0.15531	0.05691
-0.12420	-0.15495	0.05653
-0.12200	-0.15395	0.05525
-0.12212	-0.15051	0.05353
-0.12275	-0.14860	0.05178
-0.12245	-0.15016	0.05078
-0.12138	-0.14800	0.04971
-0.11850	-0.14380	0.04875
-0.11854	-0.14400	0.04819
-0.11906	-0.14382	0.04585
-0.11749	-0.14403	0.04532
-0.11495	-0.14131	0.04531
-0.11320	-0.13465	0.03980
-0.11502	-0.13106	0.03285
-0.11676	-0.12443	0.02795
-0.11650	-0.11840	0.02538
-0.11640	-0.11366	0.02269
-0.11680	-0.10650	0.02005
-0.11904	-0.10238	0.01425
-0.12109	-0.09588	0.00861
-0.11755	-0.09056	0.01015
-0.10584	-0.08943	0.01776
-0.09845	-0.08675	0.02095
-0.10079	-0.08278	0.02270
-0.10041	-0.08029	0.02404
-0.09873	-0.07701	0.02650
-0.10115	-0.07260	0.02728
-0.10350	-0.06850	0.02630
-0.10499	-0.06892	0.02656
-0.10706	-0.06655	0.02521
-0.10580	-0.06448	0.02400
-0.10245	-0.06674	0.02494
-0.09965	-0.06790	0.02530
-0.09283	-0.06457	0.02705
-0.09020	-0.06405	0.02931
-0.08652	-0.06290	0.03000
-0.08237	-0.05991	0.02870
-0.08115	-0.06100	0.02940
-0.07554	-0.06396	0.03315
-0.06361	-0.05088	0.03368
-0.06200	-0.06144	0.04072
-0.06930	-0.09522	0.05134
-0.06900	-0.10570	0.05460
-0.07081	-0.10175	0.05310
-0.06999	-0.09842	0.05426
-0.08026	-0.10678	0.05483
-0.10106	-0.12633	0.05472
-0.11645	-0.14275	0.05690
-0.12708	-0.14660	0.05571
-0.13273	-0.14596	0.05554
-0.14029	-0.15798	0.06094
-0.14513	-0.17459	0.06972
-0.14250	-0.17685	0.07495
-0.13911	-0.17791	0.07565
-0.13427	-0.18154	0.07826
-0.13327	-0.18414	0.08003
-0.13490	-0.18242	0.07905
-0.13340	-0.18005	0.07880
-0.13504	-0.18081	0.07928
-0.13592	-0.18116	0.08006
-0.13695	-0.18126	0.08026
-0.13819	-0.18103	0.07930
-0.13785	-0.18130	0.07885
-0.13734	-0.18052	0.07849
-0.14183	-0.18961	0.07907
-0.14679	-0.19839	0.07785
-0.14834	-0.19850	0.07401
-0.15050	-0.19790	0.06965
-0.15168	-0.19812	0.06643
-0.15249	-0.19512	0.06331
-0.15159	-0.19617	0.05911
-0.15742	-0.20421	0.04674
-0.17260	-0.20910	0.02300
-0.17238	-0.20462	0.00296
-0.16948	-0.19997	-0.00772
-0.16826	-0.19628	-0.01717
-0.16683	-0.19657	-0.02475
-0.16295	-0.19560	-0.02805
-0.16042	-0.16830	-0.04156
-0.15735	-0.14127	-0.04226
-0.12561	-0.10310	-0.03079
-0.06454	-0.05138	-0.01872
-0.00045	-0.00660	-0.00855
0.06993	0.02930	0.00679
0.14631	0.06252	0.00760
0.23437	0.09325	-0.00217
0.33792	0.13428	-0.01754
0.45920	0.19545	-0.04500
0.60360	0.26636	-0.08164
0.73517	0.38136	-0.13021
0.85089	0.49691	-0.18493
0.95396	0.58611	-0.24590
1.02940	0.66950	-0.29895
1.05705	0.69775	-0.30521
1.01249	0.55272	-0.29096
0.89931	0.35962	-0.25381
0.75495	0.23909	-0.18872
0.59975	0.15385	-0.08625
0.41700	0.06231	0.07966
0.22361	-0.04321	0.17279
0.09705	-0.11850	0.21340
0.03380	-0.16363	0.24038
-0.03590	-0.21445	0.23410
-0.09963	-0.25329	0.21544
-0.13473	-0.26243	0.18283
-0.16090	-0.28182	0.15506
-0.18274	-0.30450	0.13640
-0.18630	-0.29890	0.11625
-0.18969	-0.30018	0.09890
-0.18925	-0.29921	0.07978
-0.18075	-0.29711	0.06583
-0.16796	-0.29401	0.05894
-0.15990	-0.28875	0.05075
-0.15316	-0.28700	0.04632
-0.14152	-0.27751	0.04149
-0.12909	-0.26755	0.03237
-0.12108	-0.25876	0.02523
-0.11610	-0.24510	0.02510
-0.10947	-0.23370	0.02773
-0.11129	-0.22600	0.02818
-0.11562	-0.21766	0.02792
-0.11473	-0.21088	0.02872
-0.11295	-0.20840	0.02800
-0.11048	-0.20255	0.02800
-0.10561	-0.19514	0.02463
-0.10236	-0.19110	0.02163
-0.10296	-0.18817	0.01764
-0.10300	-0.18485	0.01320
-0.09908	-0.18085	0.01260
-0.09744	-0.17985	0.01023
-0.09728	-0.17925	0.00649
-0.09462	-0.17659	0.00454
-0.09190	-0.17555	0.00190
-0.08998	-0.17315	-0.00150
-0.08815	-0.16986	-0.00600
-0.08673	-0.16874	-0.00884
-0.08306	-0.16736	-0.01057
-0.07950	-0.16420	-0.01445
-0.07902	-0.16436	-0.01637
-0.07581	-0.16206	-0.01805
-0.07311	-0.16055	-0.01942
-0.07312	-0.15974	-0.02103
-0.07050	-0.15625	-0.02140
-0.06772	-0.15532	-0.02121
-0.06495	-0.15397	-0.02368
-0.06387	-0.15311	-0.02516
-0.06318	-0.15223	-0.02588
-0.06010	-0.14920	-0.02905
-0.05727	-0.14950	-0.03011
-0.05368	-0.14705	-0.03312
-0.05021	-0.14557	-0.03564
-0.04721	-0.14533	-0.03768
-0.04425	-0.14325	-0.04200
-0.04145	-0.13993	-0.04428
-0.03706	-0.13645	-0.04629
-0.03276	-0.13385	-0.05080
-0.03030	-0.13136	-0.05539
-0.02710	-0.12820	-0.05815
-0.02198	-0.12540	-0.06251
-0.01705	-0.12074	-0.06723
-0.01493	-0.11451	-0.07429
-0.01503	-0.11107	-0.08322
-0.01185	-0.10855	-0.08905
-0.00345	-0.10130	-0.09665
-0.00270	-0.09546	-0.09926
0.00081	-0.09478	-0.10500
0.00880	-0.09284	-0.11474
0.01320	-0.08670	-0.12075
0.02522	-0.08081	-0.12732
0.03257	-0.07644	-0.13125
0.03920	-0.07254	-0.13584
0.05034	-0.06697	-0.14426
0.06160	-0.06200	-0.15295
0.07018	-0.05866	-0.15900
0.07889	-0.05420	-0.16707
0.08800	-0.04935	-0.17722
0.09449	-0.04382	-0.18860
0.10280	-0.03860	-0.19950
0.11857	-0.03313	-0.20799
0.13098	-0.02547	-0.21376
0.13640	-0.02052	-0.22155
0.14634	-0.01497	-0.23451
0.16255	-0.00170	-0.25220
0.17677	0.01268	-0.26536
0.19699	0.03079	-0.27531
0.21234	0.03736	-0.28854
0.22004	0.03818	-0.30544
0.23295	0.05160	-0.31880
0.24550	0.06090	-0.32550
0.26180	0.07460	-0.33724
0.27525	0.08169	-0.34475
0.28053	0.08351	-0.34946
0.28665	0.09585	-0.36290
0.30254	0.10902	-0.37349
0.31507	0.11953	-0.37990
0.32094	0.12937	-0.39487
0.32684	0.13934	-0.41103
0.33330	0.14500	-0.41570
0.33456	0.14757	-0.41917
0.33507	0.15624	-0.41801
0.33576	0.16447	-0.41560
0.33287	0.16969	-0.41659
0.32585	0.17660	-0.42030
0.32058	0.18294	-0.42253
0.31335	0.17724	-0.41765
0.30148	0.16693	-0.41151
0.28798	0.16146	-0.40313
0.27650	0.15910	-0.38815
0.26300	0.15236	-0.37239
0.24916	0.14614	-0.35596
0.23455	0.14326	-0.34177
0.21838	0.13762	-0.32683
0.20205	0.12625	-0.30800
0.18601	0.11569	-0.29032
0.16310	0.10198	-0.27339
0.13783	0.08874	-0.25836
0.11585	0.07617	-0.24338
0.09630	0.06015	-0.22415
0.07568	0.04437	-0.20719
0.05663	0.02908	-0.19050
0.03695	0.01449	-0.17362
0.01787	-0.00093	-0.15798
0.00360	-0.01320	-0.14285
-0.00892	-0.02152	-0.12993
-0.01870	-0.03026	-0.11508
-0.02999	-0.03962	-0.10122
-0.04116	-0.04803	-0.08967
-0.04875	-0.05905	-0.07775
-0.06110	-0.08107	-0.06435
-0.06821	-0.09305	-0.05195
-0.07442	-0.09874	-0.04115
-0.08122	-0.10566	-0.03215
-0.08285	-0.10750	-0.02495
-0.08743	-0.11058	-0.02088
-0.09529	-0.11720	-0.01457
-0.10111	-0.12368	-0.00876
-0.10424	-0.12647	-0.00677
-0.10680	-0.13035	-0.00365
-0.10853	-0.13419	0.00034
-0.10887	-0.13573	0.00642
-0.10966	-0.13575	0.01047
-0.11017	-0.13614	0.01184
-0.10985	-0.13630	0.01380
-0.11033	-0.13614	0.01572
-0.11212	-0.13630	0.01520
-0.11374	-0.13673	0.01670
-0.11349	-0.13681	0.01970
-0.11335	-0.13675	0.01950
-0.11383	-0.13539	0.02038
-0.11432	-0.13469	0.02305
-0.11459	-0.13510	0.02519
-0.11452	-0.13454	0.02406
-0.11460	-0.13090	0.02290
-0.11399	-0.13069	0.02588
-0.11387	-0.13080	0.02617
-0.11365	-0.13112	0.02647
-0.11312	-0.13131	0.02833
-0.11325	-0.13125	0.02790
-0.11325	-0.13125	0.02790
-0.11279	-0.13236	0.02942
-0.11261	-0.12975	0.03002
-0.11295	-0.12690	0.02890
-0.11295	-0.12690	0.02890
-0.11243	-0.12714	0.03062
-0.11235	-0.12718	0.03111
-0.11220	-0.12724	0.03093
-0.11218	-0.12724	0.03032
-0.11270	-0.12700	0.02860
-0.11270	-0.12700	0.02860
-0.11278	-0.12427	0.02834
-0.11338	-0.12130	0.02636
-0.11316	-0.12192	0.02561
-0.11100	-0.12140	0.02685
-0.11100	-0.12140	0.02685
-0.11139	-0.12122	0.02556
-0.11178	-0.12104	0.02427
-0.11165	-0.12110	0.02470
-0.11165	-0.12110	0.02470
-0.11165	-0.12110	0.02470
-0.11106	-0.12395	0.02666
-0.11103	-0.12704	0.02942
-0.11123	-0.12637	0.02927
-0.10975	-0.12685	0.02915
-0.10937	-0.12692	0.02926
-0.11050	-0.12682	0.03011
-0.11087	-0.12686	0.03118
-0.11100	-0.12680	0.03075
-0.11100	-0.12680	0.03075
-0.11100	-0.12680	0.03075
-0.11103	-0.12716	0.03264
-0.11106	-0.12752	0.03453
-0.11105	-0.12740	0.03390
-0.11105	-0.12740	0.03390
-0.11257	-0.12712	0.03346
-0.11307	-0.12694	0.03306
-0.11271	-0.12727	0.03393
-0.11235	-0.12760	0.03480
-0.11235	-0.12760	0.03480
-0.11235	-0.12760	0.03480
-0.11248	-0.12754	0.03437
-0.11209	-0.12772	0.03566
-0.11213	-0.12781	0.03690
-0.11385	-0.12745	0.03670
-0.11385	-0.12745	0.03670
-0.11379	-0.12762	0.03659
-0.11384	-0.12717	0.03735
-0.11356	-0.12549	0.03658
-0.11185	-0.12075	0.03175
-0.11197	-0.12037	0.02977
-0.11555	-0.12075	0.02836
-0.12067	-0.12179	0.02915
-0.12367	-0.12294	0.03163
-0.12295	-0.12310	0.03075
-0.12295	-0.12310	0.03075
-0.12313	-0.12259	0.03108
-0.12331	-0.12208	0.03141
-0.12330	-0.12223	0.03136
-0.12350	-0.12215	0.03160
-0.12350	-0.12215	0.03160
-0.12378	-0.12286	0.03214
-0.12282	-0.12013	0.03220
-0.12244	-0.11773	0.03139
-0.12460	-0.11825	0.03015
-0.12484	-0.11757	0.03059
-0.12490	-0.11740	0.03070
-0.12490	-0.11740	0.03070
-0.12490	-0.11740	0.03070
-0.12490	-0.11740	0.03070
-0.12490	-0.11740	0.03070
-0.12490	-0.11740	0.03070
-0.12490	-0.11740	0.03070
-0.12490	-0.11740	0.03070
-0.12490	-0.11740	0.03070
-0.12490	-0.11740	0.03070
-0.12490	-0.11740	0.03070
-0.12490	-0.11740	0.03070
-0.12490	-0.11740	0.03070
-0.12490	-0.11740	0.03070
-0.12490	-0.11740	0.03070
-0.12490	-0.11740	0.03070
-0.12490	-0.11740	0.03070
-0.12490	-0.11740	0.03070
-0.12490	-0.11740	0.03070
-0.12490	-0.11740	0.03070
-0.12490	-0.11740	0.03070
-0.12490	-0.11740	0.03070
-0.12490	-0.11740	0.03070
-0.12490	-0.11740	0.03070
-0.12490	-0.11740	0.03070
-0.12490	-0.11740	0.03070
-0.12490	-0.11740	0.03070
-0.12490	-0.11740	0.03070
-0.12490	-0.11740	0.03070
-0.12490	-0.11740	0.03070
-0.12490	-0.11740	0.03070
-0.12490	-0.11740	0.03070
-0.12490	-0.11740	0.03070
-0.12490	-0.11740	0.03070
-0.12490	-0.11740	0.03070
-0.12490	-0.11740	0.03070
-0.12490	-0.11740	0.03070
-0.12490	-0.11740	0.03070
-0.12490	-0.11740	0.03070
-0.12490	-0.11740	0.03070
-0.12490	-0.11740	0.03070
-0.12490	-0.11740	0.03070
-0.12490	-0.11740	0.03070
-0.12490	-0.11740	0.03070
-0.12490	-0.11740	0.03070
-0.12490	-0.11740	0.03070
-0.12490	-0.11740	0.03070
-0.12490	-0.11740	0.03070
-0.12490	-0.11740	0.03070
-0.12490	-0.11740	0.03070
-0.12490	-0.11740	0.03070
-0.12490	-0.11740	0.03070
-0.12490	-0.11740	0.03070
